#lam[Angstrom] flux[erg/cm2/s/A]
1010.0 1.848500586051527e-47
1020.0 7.774939611028399e-47
1030.0 2.6127066179948316e-45
1040.0 1.5536721111593588e-45
1050.0 1.5455010908585146e-46
1060.0 7.553760516761527e-47
1070.0 2.8000904255198477e-44
1080.0 2.2496472008521784e-42
1090.0 1.2142835418418433e-43
1100.0 3.065404751234438e-44
1110.0 3.506832213387075e-42
1120.0 6.988127143270427e-42
1130.0 3.7637395971230126e-41
1140.0 2.4400741394940145e-40
1150.0 2.2260924394909553e-40
1160.0 4.826228423749249e-40
1170.0 1.4753374956359962e-39
1180.0 1.256941067208801e-39
1190.0 5.190787256585893e-39
1200.0 7.16407280647656e-39
1210.0 1.7853685599199536e-38
1220.0 1.7603157925388166e-38
1230.0 5.312416152948778e-38
1240.0 1.0125400563219576e-37
1250.0 1.7727463587842294e-37
1260.0 2.8091250290862907e-37
1270.0 5.294384362860566e-37
1280.0 8.215275551006322e-37
1290.0 1.4847508952917292e-36
1300.0 2.7328634083131502e-36
1310.0 4.351458512932331e-36
1320.0 2.3278573269549906e-35
1330.0 5.177418338335865e-35
1340.0 7.971218330777367e-35
1350.0 1.2682318511433108e-34
1360.0 1.9172222877335718e-34
1370.0 2.883960606191151e-34
1380.0 4.224941627240099e-34
1390.0 6.582007983964769e-34
1400.0 9.019930760657823e-34
1410.0 1.4394393840974473e-33
1420.0 2.356595610770346e-33
1430.0 3.5456270480641526e-33
1440.0 4.8504849944776486e-33
1450.0 7.834524405033739e-33
1460.0 9.992825921544017e-33
1470.0 1.6681050324666224e-32
1480.0 2.545991282040336e-32
1490.0 3.6180772700918835e-32
1500.0 5.625111041981439e-32
1510.0 8.233544058699905e-32
1520.0 1.2257140831001413e-31
1530.0 1.6656073110285166e-31
1540.0 2.2936006088617483e-31
1550.0 3.278064900590509e-31
1560.0 5.167834806511767e-31
1570.0 7.372482403009359e-31
1580.0 5.9922832883238275e-31
1590.0 1.2705285563594676e-30
1600.0 1.5750735765782293e-30
1610.0 3.2869052286985186e-30
1620.0 2.48436962717892e-30
1630.0 3.718559450814968e-30
1640.0 5.846851277559613e-30
1650.0 1.4246704686019983e-29
1660.0 1.9305394003760498e-29
1670.0 2.662376070993818e-29
1680.0 3.093438032204466e-29
1690.0 4.5388358204318795e-29
1700.0 4.704164522569651e-29
1710.0 8.497446554271099e-29
1720.0 1.1714145801150333e-28
1730.0 2.006596812619972e-28
1740.0 3.204313663655299e-28
1750.0 4.7944802988055905e-28
1760.0 7.309974006515734e-28
1770.0 1.02488150460817e-27
1780.0 1.3973026623398824e-27
1790.0 2.0148267784748838e-27
1800.0 2.8946290700002006e-27
1810.0 3.800248114039903e-27
1820.0 5.433134944999786e-27
1830.0 7.091648013362141e-27
1840.0 9.174040790266244e-27
1850.0 1.2079843138833977e-26
1860.0 1.8414943219039125e-26
1870.0 2.5528700796298197e-26
1880.0 3.522025567591381e-26
1890.0 4.755556465000035e-26
1900.0 6.58881538034211e-26
1910.0 8.800455960715368e-26
1920.0 1.2025354304999995e-25
1930.0 1.5428009938330653e-25
1940.0 2.0957710242499445e-25
1950.0 2.8570311192500725e-25
1960.0 3.212862316654989e-25
1970.0 4.8530981339502745e-25
1980.0 6.713634073175048e-25
1990.0 8.880893217150112e-25
2000.0 1.0923580080000198e-24
2010.0 1.3980918975099812e-24
2020.0 1.8258376203584122e-24
2030.0 2.4698450730000755e-24
2040.0 3.1902961662050875e-24
2050.0 4.313398621399986e-24
2060.0 5.749591696349873e-24
2070.0 6.708995430850936e-24
2080.0 9.88482442898626e-24
2090.0 1.2500230262000759e-23
2100.0 1.675883059114859e-23
2110.0 2.1557326439998166e-23
2120.0 2.8749131297000054e-23
2130.0 3.6387823777400947e-23
2140.0 3.814884315436748e-23
2150.0 6.324486176199181e-23
2160.0 8.206861830100071e-23
2170.0 9.648445977249088e-23
2180.0 1.3231687499247358e-22
2190.0 1.7946650200000113e-22
2200.0 2.2235493899999583e-22
2210.0 2.780308191399835e-22
2220.0 3.760053890450094e-22
2230.0 4.545772971173805e-22
2240.0 6.03814301879965e-22
2250.0 7.580395530500048e-22
2260.0 9.786732103499233e-22
2270.0 1.2171036167499427e-21
2280.0 1.5432362615853634e-21
2290.0 1.9265869480000347e-21
2300.0 2.3671239894999535e-21
2310.0 2.8866392972499248e-21
2320.0 3.7870929485000996e-21
2330.0 4.952398238415299e-21
2340.0 5.975906154999559e-21
2350.0 7.54669829350102e-21
2360.0 9.533608465998065e-21
2370.0 1.1622418845459459e-20
2380.0 1.4416790195499186e-20
2390.0 1.848390595500008e-20
2400.0 2.278306937500004e-20
2410.0 2.1531318044497697e-20
2420.0 4.42318932133912e-20
2430.0 5.334248124299933e-20
2440.0 7.222892599499014e-20
2450.0 9.408568412500201e-20
2460.0 1.1505428050243929e-19
2470.0 1.4103117409999288e-19
2480.0 1.747278579999909e-19
2490.0 2.1347082814998641e-19
2500.0 2.547067298500323e-19
2510.0 3.1593408212393044e-19
2520.0 3.3654053324999014e-19
2530.0 4.367617766000159e-19
2540.0 5.489072180000463e-19
2550.0 6.848015754679355e-19
2560.0 8.338832285000613e-19
2570.0 9.811553727000872e-19
2580.0 1.2271560850000102e-18
2590.0 1.454398598738779e-18
2600.0 1.7842337649999388e-18
2610.0 2.1332312720001532e-18
2620.0 2.5681758599998965e-18
2630.0 3.048461702999749e-18
2640.0 3.670422820538448e-18
2650.0 4.2951081575001075e-18
2660.0 5.251803769999891e-18
2670.0 6.310478054999977e-18
2680.0 7.414843315984558e-18
2690.0 8.99843968500012e-18
2700.0 1.0779250574999342e-17
2710.0 1.2617410149998373e-17
2720.0 1.523475554499012e-17
2730.0 1.822546169999956e-17
2740.0 2.167505854999999e-17
2750.0 2.5522000000001153e-17
2760.0 3.007030428886133e-17
2770.0 3.586100230000198e-17
2780.0 4.258614640000042e-17
2790.0 5.020030554999948e-17
2800.0 5.918612529999927e-17
2810.0 6.960092711440036e-17
2820.0 8.210966740000217e-17
2830.0 9.581240025000204e-17
2840.0 1.138369019999993e-16
2850.0 1.2663722365128562e-16
2860.0 1.4134244876577967e-08
2870.0 5.05141699553946e-08
2880.0 1.551204751893155e-07
2890.0 2.730944795862019e-07
2900.0 5.150756288800115e-07
2910.0 7.025667035220702e-07
2920.0 9.94429899607607e-07
2930.0 1.0924933482242915e-06
2940.0 7.382193293809129e-07
2950.0 1.5293923619499013e-06
2960.0 2.727001196499962e-06
2970.0 2.294178223310873e-06
2980.0 2.912049605087318e-06
2990.0 8.17402826430948e-07
3000.0 3.191451081418263e-06
3010.0 2.9171837129519583e-06
3020.0 2.1521230384557406e-06
3030.0 6.161338685105735e-06
3040.0 1.3106512105486203e-06
3050.0 1.359897280260244e-06
3060.0 2.3032451055396166e-06
3070.0 6.08708766389072e-06
3080.0 1.871404695447883e-06
3090.0 6.0368382180726414e-06
3100.0 1.1934553249511307e-05
3110.0 2.7427504643026026e-05
3120.0 2.5194894878442916e-05
3130.0 2.2371563802863506e-05
3140.0 1.7308854606934683e-05
3150.0 2.9089555212777313e-05
3160.0 3.607945081429565e-05
3170.0 5.352960531713506e-05
3180.0 7.590114796918853e-05
3190.0 5.647681120762555e-05
3200.0 6.720880554805302e-05
3210.0 8.345869818799998e-05
3220.0 3.1989049039752444e-05
3230.0 5.362310590930016e-05
3240.0 3.060969244964474e-05
3250.0 1.2680490109826422e-05
3260.0 7.047727175616709e-05
3270.0 2.493325362843919e-05
3280.0 1.9014551495826035e-05
3290.0 1.1074911440288927e-05
3300.0 5.0003143748749475e-08
3310.0 1.974178093845333e-06
3320.0 4.619607043097141e-05
3330.0 0.00012381041282597146
3340.0 0.0002503787859319899
3350.0 0.0002772288028990443
3360.0 0.0003884270973378783
3370.0 0.00018180626199865984
3380.0 0.000358191337773568
3390.0 0.00022312942044521483
3400.0 0.00024457785169116643
3410.0 1.5112441300101395e-05
3420.0 0.00021231184905981732
3430.0 0.0001473970993225946
3440.0 8.67145712603935e-05
3450.0 1.0139366254707644e-05
3460.0 3.6518298248135686e-05
3470.0 2.425799755431976e-05
3480.0 0.00034773703614087716
3490.0 0.0003966025523431494
3500.0 0.00013747962407543025
3510.0 3.101632878131538e-05
3520.0 3.8575142615841265e-05
3530.0 2.0658777797767797e-05
3540.0 0.0009657046729134834
3550.0 0.0008239971657552421
3560.0 0.0009979602736414099
3570.0 0.0003469237357935024
3580.0 0.00011421432099451787
3590.0 0.00020759206189115183
3600.0 0.00017846538667935013
3610.0 0.0005947296703261827
3620.0 0.0015602076276952336
3630.0 0.0015925494609347998
3640.0 0.003374072289499562
3650.0 0.002202241410854796
3660.0 0.003905813904150832
3670.0 0.004174379402262488
3680.0 0.003634947690257685
3690.0 0.004797528218773683
3700.0 0.005725952800327888
3710.0 0.004611231856942338
3720.0 0.0025516073984858546
3730.0 0.002371807598908954
3740.0 0.00317938590213575
3750.0 0.004981195131341584
3760.0 0.008234086055797066
3770.0 0.009669963121646745
3780.0 0.008445811682483994
3790.0 0.009569798527439295
3800.0 0.006439720052124639
3810.0 0.010491887518148372
3820.0 0.01013708366900068
3830.0 0.011596096203649672
3840.0 0.013594386658414571
3850.0 0.011414817745088906
3860.0 0.0036736030009943384
3870.0 0.009861445679165848
3880.0 0.010593412503972078
3890.0 0.01033889831215311
3900.0 0.01018386069935084
3910.0 0.009342669161778953
3920.0 0.01590196928005009
3930.0 0.011965943489437365
3940.0 0.018037882400232266
3950.0 0.020359422699539588
3960.0 0.019280491495051403
3970.0 0.017148644646465473
3980.0 0.016949133362834542
3990.0 0.013528485985109258
4000.0 0.011258537993551735
4010.0 0.0050428524072317306
4020.0 0.0017365725835040752
4030.0 0.0002795985734206965
4040.0 0.0003360531385966784
4050.0 0.0011387659816226117
4060.0 0.009008075297276244
4070.0 0.023053152777498812
4080.0 0.027148339060026224
4090.0 0.03455313407092297
4100.0 0.03628053458803769
4110.0 0.049341798596555866
4120.0 0.05376927931470117
4130.0 0.055113194431501374
4140.0 0.06884213516952363
4150.0 0.06250350998458631
4160.0 0.07171059855170311
4170.0 0.0326551592336111
4180.0 0.07296700306506125
4190.0 0.04413587207880036
4200.0 0.07253359012701227
4210.0 0.07483140786796284
4220.0 0.06309955931842694
4230.0 0.04477351446902933
4240.0 0.08410482879994857
4250.0 0.03627050614627845
4260.0 0.04013528553781666
4270.0 0.039423560808942056
4280.0 0.04140608902999203
4290.0 0.03262331667881625
4300.0 0.10384692153078488
4310.0 0.12631590171800727
4320.0 0.14569365151777933
4330.0 0.1418283777218997
4340.0 0.1458421220777493
4350.0 0.17648816987703833
4360.0 0.18603023993277484
4370.0 0.2170259486524839
4380.0 0.21653494757143443
4390.0 0.2422927233120183
4400.0 0.22404032745740868
4410.0 0.2367630355088016
4420.0 0.2216699669934189
4430.0 0.2426639083937227
4440.0 0.2629510374063936
4450.0 0.2994323058919952
4460.0 0.31082759912943014
4470.0 0.34501893460661354
4480.0 0.27860726665110247
4490.0 0.36600018366529163
4500.0 0.29628005543927804
4510.0 0.3572717482675173
4520.0 0.3351869201356107
4530.0 0.35648715747604065
4540.0 0.40987090184030844
4550.0 0.38422515118157163
4560.0 0.4392903465968658
4570.0 0.3869165628942175
4580.0 0.443898570831059
4590.0 0.39595071474341886
4600.0 0.3780582619664959
4610.0 0.15275211613386402
4620.0 0.4922531388774216
4630.0 0.2868545363283253
4640.0 0.4322207086618628
4650.0 0.34665544174467305
4660.0 0.5782361077293139
4670.0 0.6161355310361449
4680.0 0.5986854520682166
4690.0 0.6708746000833334
4700.0 0.8552843828516499
4710.0 0.7202300406531557
4720.0 0.5673874237196604
4730.0 0.562809246059523
4740.0 0.8060509893926442
4750.0 0.8698959702480948
4760.0 0.7010622123921904
4770.0 0.8179610269827885
4780.0 0.6863595043241348
4790.0 0.65050724126089
4800.0 0.7052316765000443
4810.0 0.36152004135458227
4820.0 0.732498687615087
4830.0 0.8362231664498871
4840.0 0.6899598645130689
4850.0 0.6145730473402987
4860.0 0.7357988744650897
4870.0 0.8450109322220715
4880.0 0.7441709190871304
4890.0 0.8352792828912377
4900.0 0.7176631662595025
4910.0 0.6841699118372571
4920.0 0.5913010283485152
4930.0 0.7494205045225577
4940.0 0.7167941710531344
4950.0 0.47624007140271873
4960.0 0.655620815098477
4970.0 0.6287619960349242
4980.0 0.5096050204787812
4990.0 0.4836809125899741
5000.0 0.4211734499500205
5010.0 0.3125788173500777
5020.0 0.24285897742412818
5030.0 0.18773729645751835
5040.0 0.16805712684709423
5050.0 0.16572908349914137
5060.0 0.1645859457186685
5070.0 0.16913037639147566
5080.0 0.17960052656496767
5090.0 0.16974340856071451
5100.0 0.15508659934941132
5110.0 0.14950364449997586
5120.0 0.12516505497493355
5130.0 0.12416074758047545
5140.0 0.11768090612252144
5150.0 0.1134995519875358
5160.0 0.10856316990497683
5170.0 0.10505260775726594
5180.0 0.08954337550947856
5190.0 0.10660183744599677
5200.0 0.09092730828347494
5210.0 0.09899435333299075
5220.0 0.11406143684998721
5230.0 0.0994853210369995
5240.0 0.10013574450506574
5250.0 0.09626116299998942
5260.0 0.09484915920999343
5270.0 0.08843047466602888
5280.0 0.08384396721597275
5290.0 0.08334551572050113
5300.0 0.0754239408804883
5310.0 0.07787516004998549
5320.0 0.07458707411671393
5330.0 0.06888990061860814
5340.0 0.06422961139000968
5350.0 0.06271593989091573
5360.0 0.060087628302000415
5370.0 0.05812103118699926
5380.0 0.05571913202800012
5390.0 0.053199477569813435
5400.0 0.04955325752948675
5410.0 0.05048420526500229
5420.0 0.04835507849998751
5430.0 0.04520228318987703
5440.0 0.04480097491500226
5450.0 0.0422309511020039
5460.0 0.04031842566650391
5470.0 0.03976302024322247
5480.0 0.03831360314999552
5490.0 0.03614743032000512
5500.0 0.03518550127615333
5510.0 0.03451692884999584
5520.0 0.03274612937000016
5530.0 0.031125360675008082
5540.0 0.030132377084377177
5550.0 0.027733430277507187
5560.0 0.026747768416992303
5570.0 0.02641656169999749
5580.0 0.025600736327697327
5590.0 0.02500314649999702
5600.0 0.023580142700003873
5610.0 0.022229328049994647
5620.0 0.020440326363128113
5630.0 0.020055581265000663
5640.0 0.01894711925000374
5650.0 0.018253059228301716
5660.0 0.01728794355499501
5670.0 0.016569183699999716
5680.0 0.015170639001499418
5690.0 0.014668973035732363
5700.0 0.013741120799996252
5710.0 0.012904938600000672
5720.0 0.011951811700000653
5730.0 0.011182604333900734
5740.0 0.010195222220001507
5750.0 0.009393310009000212
5760.0 0.008700115044999896
5770.0 0.007669887498751246
5780.0 0.007097394305000445
5790.0 0.006402078875000615
5800.0 0.005716670987388724
5810.0 0.005042595170000008
5820.0 0.004446260815000533
5830.0 0.0036650281749997515
5840.0 0.0029326530397361214
5850.0 0.0024487694499995697
5860.0 0.0019658041899999527
5870.0 0.0009338016159998378
5880.0 0.00017858475918327318
5890.0 2.5069912050013665e-05
5900.0 5.1820103999924695e-05
5910.0 0.0002569585306777944
5920.0 0.0012724555530000546
5930.0 0.0031387528724999923
5940.0 0.0046965559000001645
5950.0 0.0063476575743168905
5960.0 0.008154347075000337
5970.0 0.010306664300001435
5980.0 0.012799627100003538
5990.0 0.016076495505954295
6000.0 0.019785418299999455
6010.0 0.024004507000000223
6020.0 0.02899088620000026
6030.0 0.03519535941847643
6040.0 0.04250229819999982
6050.0 0.050158383899998035
6060.0 0.05849817851065173
6070.0 0.06842362050000957
6080.0 0.07811819745001977
6090.0 0.09245183785000134
6100.0 0.10612377759985615
6110.0 0.1235304804999977
6120.0 0.14207977499999858
6130.0 0.16300534399999836
6140.0 0.18538900595535937
6150.0 0.2092855249999984
6160.0 0.23807509250001985
6170.0 0.273303019999996
6180.0 0.3091316210089073
6190.0 0.34186274625001417
6200.0 0.39182162149998984
6210.0 0.44197587403662913
6220.0 0.48592192104992776
6230.0 0.5457775732500341
6240.0 0.6024424745499781
6250.0 0.6816883583725417
6260.0 0.7457106880000074
6270.0 0.8411026719999565
6280.0 0.93235732299995
6290.0 1.0331540961865497
6300.0 1.1050359609998712
6310.0 1.2195261657601097
6320.0 1.4298980872785245
6330.0 1.563497669999887
6340.0 1.7437781449998837
6350.0 1.9497557249999984
6360.0 2.1554728625762953
6370.0 2.358878280000064
6380.0 2.6169838249999886
6390.0 2.860412244999838
6400.0 3.1313717745972434
6410.0 3.4358687949999394
6420.0 3.7158478000002146
6430.0 3.9816637270000363
6440.0 4.44379897157403
6450.0 4.890962185000053
6460.0 5.18656257100046
6470.0 5.710380873786234
6480.0 6.269002275000057
6490.0 6.772978330000074
6500.0 7.321111515000086
6510.0 7.718681143028826
6520.0 8.514780699999502
6530.0 9.092750174999583
6540.0 9.911727774998841
6550.0 10.612138484635823
6560.0 11.427591199999657
6570.0 12.3256651000002
6580.0 12.490098397208595
6590.0 14.019981250000257
6600.0 14.861182780000787
6610.0 15.669583055
6620.0 17.035346116504662
6630.0 17.76188633999899
6640.0 19.247080250000252
6650.0 20.37362085000119
6660.0 21.680309123210527
6670.0 22.725041300000044
6680.0 24.181116950000153
6690.0 25.584250450000233
6700.0 26.32576216594829
6710.0 26.501918800000183
6720.0 29.773894249999827
6730.0 29.783399244322293
6740.0 32.636600199999165
6750.0 33.915066650001
6760.0 35.43586285000012
6770.0 36.23972131918629
6780.0 36.056941007001825
6790.0 39.128593099997
6800.0 39.7802013500024
6810.0 40.61433027725599
6820.0 41.078244519996616
6830.0 41.77895600000208
6840.0 41.764262610346755
6850.0 42.19100632500041
6860.0 41.08533264800056
6870.0 42.42533254999975
6880.0 41.827810834751126
6890.0 36.38705239999611
6900.0 39.34832524999903
6910.0 38.884163999999885
6920.0 35.9499346747073
6930.0 37.67454384999939
6940.0 36.09163949500068
6950.0 36.98674525000011
6960.0 36.489586572915286
6970.0 37.10724929999939
6980.0 37.45449745000058
6990.0 35.15690599739974
7000.0 38.364427949997435
7010.0 40.59125994999918
7020.0 41.7854104500004
7030.0 42.56192775998091
7040.0 44.06766920000016
7050.0 44.05252690000147
7060.0 45.15793470000067
7070.0 45.61028439095237
7080.0 46.097494000000566
7090.0 44.30296683500011
7100.0 45.29486775097291
7110.0 47.153181950002185
7120.0 48.37455179999857
7130.0 47.93543564499898
7140.0 48.10359544089813
7150.0 49.34384690000085
7160.0 49.82478294999951
7170.0 49.160535749994345
7180.0 49.56900741667533
7190.0 48.90221389999677
7200.0 47.10461202649923
7210.0 47.42286301671758
7220.0 46.61828645500036
7230.0 47.01833885000031
7240.0 46.12119350000165
7250.0 45.90538576218596
7260.0 44.67113500000325
7270.0 43.900950749999765
7280.0 42.46512725000177
7290.0 42.487344399958346
7300.0 41.4169303499996
7310.0 40.430928849999624
7320.0 39.03437944999994
7330.0 36.97786880692418
7340.0 36.33605395000302
7350.0 35.60772404999996
7360.0 34.024155099589166
7370.0 33.66240874999985
7380.0 33.02731150000094
7390.0 31.694719249999803
7400.0 28.26516254479216
7410.0 27.735099149999705
7420.0 27.193600200000024
7430.0 27.03092539999981
7440.0 24.909807716944453
7450.0 23.5166209999999
7460.0 23.062874500000657
7470.0 23.750081007907134
7480.0 21.35813320000011
7490.0 18.536314250000043
7500.0 18.23171950000016
7510.0 17.688921449304477
7520.0 15.66890405000008
7530.0 14.52420195000008
7540.0 13.765167399998909
7550.0 12.669139725753308
7560.0 10.461217229998937
7570.0 10.41847002000001
7580.0 9.174430276152163
7590.0 8.733563556744873
7600.0 7.124087289999921
7610.0 6.538540829999965
7620.0 5.509235368331489
7630.0 3.994516475
7640.0 1.57926271
7650.0 0.22051556525000005
7660.0 0.03732909240316318
7670.0 0.042512833209997575
7680.0 0.1352600323499989
7690.0 0.0862668452000023
7700.0 0.04629262139925975
7710.0 0.16976740819998185
7720.0 0.8088316894999379
7730.0 2.3385464107697573
7740.0 4.5260926050001355
7750.0 6.824708460000368
7760.0 9.744254140000109
7770.0 12.232767991192242
7780.0 14.156978950000045
7790.0 15.175432699999968
7800.0 7.428332351999755
7810.0 19.163767796016547
7820.0 23.859591
7830.0 27.166176749999995
7840.0 30.120391137025667
7850.0 34.513194749999954
7860.0 37.71425389999995
7870.0 40.95883249999726
7880.0 45.8298657641876
7890.0 50.07051444999978
7900.0 54.3068420499997
7910.0 58.34292544999904
7920.0 64.23256188569698
7930.0 67.99615594999925
7940.0 59.506977799997834
7950.0 32.452753570514204
7960.0 80.60859020000049
7970.0 90.53364304999991
7980.0 99.01602380000026
7990.0 105.58777269542598
8000.0 111.71016749999984
8010.0 118.0352775
8020.0 125.07826000000003
8030.0 132.3193008207386
8040.0 139.15374299999738
8050.0 146.13177449999992
8060.0 152.54728449999976
8070.0 158.52375027525213
8080.0 166.26824049999863
8090.0 173.30212550000806
8100.0 182.65563852467213
8110.0 190.89115900000053
8120.0 195.68513749998854
8130.0 205.81701800000025
8140.0 212.9890399859877
8150.0 220.45117650000023
8160.0 228.31090750000027
8170.0 233.75692850000945
8180.0 239.48489415473534
8190.0 246.3268780000007
8200.0 258.1335624999981
8210.0 269.3053811930736
8220.0 275.3045975000108
8230.0 285.57922299999944
8240.0 293.59271700000096
8250.0 299.0339568612018
8260.0 307.44210600003095
8270.0 320.1508255000009
