#lam[Angstrom] flux[erg/cm2/s/A]
1010.0 5.04450597812362e-55
1020.0 2.357362616896647e-54
1030.0 3.74946460465455e-53
1040.0 2.803431996785972e-55
1050.0 3.006959470549303e-57
1060.0 2.0565400951765848e-57
1070.0 4.147239881874276e-53
1080.0 4.818312450283106e-50
1090.0 4.9677816949821475e-51
1100.0 2.511477713573802e-51
1110.0 2.910329745647215e-49
1120.0 5.660628857022289e-49
1130.0 2.987903908198434e-48
1140.0 2.047691800729292e-47
1150.0 3.2587275587813744e-47
1160.0 5.563672044959683e-47
1170.0 1.6524281597792508e-46
1180.0 2.1553526546878884e-46
1190.0 8.179741833503003e-46
1200.0 1.5524513987878242e-45
1210.0 3.815809056729422e-45
1220.0 4.376250559903541e-45
1230.0 1.6388771390800448e-44
1240.0 3.153196140553292e-44
1250.0 7.606003526729033e-44
1260.0 1.2213042584878987e-43
1270.0 2.8806389334900914e-43
1280.0 5.281115646160673e-43
1290.0 1.1402415993098255e-42
1300.0 2.1739245974759552e-42
1310.0 3.6936197334457815e-42
1320.0 1.013639096439882e-39
1330.0 3.0579076814998984e-39
1340.0 6.113832619687897e-39
1350.0 1.221493332697794e-38
1360.0 2.2989334348975514e-38
1370.0 4.3941078262080166e-38
1380.0 7.907184035316589e-38
1390.0 1.5331451775258715e-37
1400.0 1.728738168586565e-37
1410.0 4.656067347887839e-37
1420.0 1.0391852019585958e-36
1430.0 1.9051812440217436e-36
1440.0 3.031845005544524e-36
1450.0 5.182526941659337e-36
1460.0 6.096706186469915e-36
1470.0 1.830360652750007e-35
1480.0 3.289344482460861e-35
1490.0 5.148900727232105e-35
1500.0 1.0078981084550742e-34
1510.0 1.6992771210350446e-34
1520.0 2.9255434063428788e-34
1530.0 4.1621861979650945e-34
1540.0 5.905192376477122e-34
1550.0 9.377367658639601e-34
1560.0 1.6746073984687966e-33
1570.0 1.6884032488083552e-33
1580.0 1.576118046512226e-34
1590.0 9.710602423422201e-35
1600.0 2.159617117071488e-33
1610.0 1.3737011434784468e-32
1620.0 2.5675008658221584e-35
1630.0 2.52764038477461e-34
1640.0 4.395484006374004e-34
1650.0 8.136419529723566e-32
1660.0 1.1431993749042488e-31
1670.0 1.0588421689110003e-31
1680.0 2.5488603958933294e-32
1690.0 4.3174916824337886e-32
1700.0 8.134776951732973e-33
1710.0 1.5193216135411294e-33
1720.0 6.693531739372144e-32
1730.0 6.671413028563412e-31
1740.0 3.435105135796516e-30
1750.0 8.973293983720076e-30
1760.0 4.0165463648776183e-29
1770.0 7.898155577022223e-29
1780.0 1.0042977655918859e-28
1790.0 2.0097777258444167e-28
1800.0 3.3241760375038193e-28
1810.0 3.01164090428731e-28
1820.0 6.189290990917749e-28
1830.0 5.497413327732157e-28
1840.0 1.527567399802732e-28
1850.0 3.026866964537528e-28
1860.0 1.757609951280596e-27
1870.0 3.3721556792304734e-27
1880.0 5.245964620477837e-27
1890.0 6.743117932139326e-27
1900.0 1.2401537307863082e-26
1910.0 1.6109396838836978e-26
1920.0 2.2775272005714776e-26
1930.0 1.2593050076968763e-26
1940.0 2.6000396159219603e-26
1950.0 4.141277901312411e-26
1960.0 3.4183646855831606e-27
1970.0 3.493824897978169e-26
1980.0 8.874732728526396e-26
1990.0 1.1600873945122317e-25
2000.0 9.193908155191907e-26
2010.0 5.959995587870933e-26
2020.0 6.674067821060969e-26
2030.0 8.538705011756586e-26
2040.0 7.603275266107578e-26
2050.0 1.918613433094334e-25
2060.0 2.354018687121702e-25
2070.0 1.483299950735137e-26
2080.0 3.547588966517268e-25
2090.0 2.597717177115482e-25
2100.0 4.490679776216621e-25
2110.0 4.42992852670344e-25
2120.0 4.999458746960075e-25
2130.0 6.89828563741609e-26
2140.0 3.0559714381718913e-27
2150.0 7.313119804595229e-25
2160.0 2.3586009599036934e-24
2170.0 9.970239153678548e-25
2180.0 1.178431685869267e-24
2190.0 7.284844922250448e-24
2200.0 7.96027850484435e-24
2210.0 7.385887023780105e-24
2220.0 2.1025942330820252e-23
2230.0 1.1005723119440091e-23
2240.0 3.0356791825667554e-23
2250.0 3.044489609696722e-23
2260.0 3.7520497660816907e-23
2270.0 4.543120136497886e-23
2280.0 3.9882898809263124e-23
2290.0 2.0263126775757287e-23
2300.0 1.5597515585532616e-23
2310.0 4.602450442655567e-24
2320.0 1.9158045393884405e-23
2330.0 8.622878291098135e-23
2340.0 9.86272168829175e-23
2350.0 8.997895139752311e-23
2360.0 8.827292040657971e-23
2370.0 6.616811509332381e-23
2380.0 8.276173088098413e-23
2390.0 4.068149004551432e-23
2400.0 2.0091971661325117e-23
2410.0 1.5994798080566121e-27
2420.0 5.172719638987007e-24
2430.0 4.145331035975367e-24
2440.0 2.5030703071528963e-22
2450.0 9.163297442138098e-22
2460.0 1.7751042195040904e-21
2470.0 2.18298853395059e-21
2480.0 4.546114928963203e-21
2490.0 5.552467831174146e-21
2500.0 2.6595981310068238e-21
2510.0 2.4780058466634288e-21
2520.0 1.7243524522136512e-22
2530.0 6.419852556703568e-22
2540.0 4.4557674141808414e-21
2550.0 1.3950801558358387e-20
2560.0 1.903498559838695e-20
2570.0 1.3440954960051514e-20
2580.0 3.3676289475002676e-20
2590.0 3.0552332082175845e-20
2600.0 5.906751707944829e-20
2610.0 6.689816798618232e-20
2620.0 7.600991019329011e-20
2630.0 5.732041305836612e-20
2640.0 1.0368575372250296e-19
2650.0 6.243213566859218e-20
2660.0 1.0783061406117391e-19
2670.0 1.7452270713841658e-19
2680.0 2.301395931078476e-19
2690.0 2.1136789421446112e-19
2700.0 3.313146932973833e-19
2710.0 2.5810086224333305e-19
2720.0 3.9774606486358925e-19
2730.0 5.575760161999755e-19
2740.0 6.582038827671613e-19
2750.0 7.088303158483921e-19
2760.0 8.193926361253283e-19
2770.0 1.0655675322070543e-18
2780.0 1.3079316320000483e-18
2790.0 1.5620751537554494e-18
2800.0 1.8418465499998917e-18
2810.0 2.081106149105585e-18
2820.0 2.3858739961975153e-18
2830.0 2.569639766567589e-18
2840.0 3.530873229999927e-18
2850.0 3.875915592888859e-18
2860.0 2.7603038568771134e-11
2870.0 4.6082339288602553e-10
2880.0 4.774291662345969e-09
2890.0 3.9577212190513716e-08
2900.0 1.710486764667232e-07
2910.0 2.4500259496328586e-07
2920.0 3.8622565504385704e-07
2930.0 1.7508100030120974e-07
2940.0 3.172005902405947e-08
2950.0 1.2842517718674167e-07
2960.0 7.595578086781372e-07
2970.0 4.32824493827447e-07
2980.0 2.69575025320493e-07
2990.0 3.4277011020013044e-09
3000.0 1.3036279219157109e-07
3010.0 7.847695960058078e-08
3020.0 4.781091543552798e-08
3030.0 1.021125508259249e-07
3040.0 3.041951370119258e-10
3050.0 1.2997348632644308e-10
3060.0 1.187870972671288e-09
3070.0 2.7930797388679637e-09
3080.0 5.263632461106249e-11
3090.0 1.0189445792294268e-08
3100.0 4.096166802682558e-07
3110.0 3.262606116908494e-06
3120.0 1.7083304830527851e-06
3130.0 6.633020129915049e-07
3140.0 1.2709969546042278e-07
3150.0 8.512344695615446e-07
3160.0 1.5401805953545914e-06
3170.0 4.896591967585066e-06
3180.0 2.3328458753750632e-05
3190.0 4.931099847918987e-06
3200.0 4.622960275411179e-06
3210.0 6.478161191104802e-06
3220.0 1.4719147774696639e-06
3230.0 2.0424528784216482e-06
3240.0 1.8587296987270025e-07
3250.0 8.807126035735551e-08
3260.0 4.192591129587762e-07
3270.0 5.867778408001193e-08
3280.0 7.593044263495949e-09
3290.0 7.90583780866702e-10
3300.0 2.404482202775828e-11
3310.0 1.3346781905165225e-10
3320.0 8.235484852378171e-09
3330.0 1.1492395876387523e-07
3340.0 2.372802608983589e-06
3350.0 5.440645021131965e-06
3360.0 1.239406805973391e-05
3370.0 8.509855827858034e-06
3380.0 1.3556552627799321e-05
3390.0 4.531703055875086e-06
3400.0 8.590478330460079e-07
3410.0 1.678376734986884e-10
3420.0 2.232875793686773e-07
3430.0 1.474240038843545e-07
3440.0 7.360656659649089e-08
3450.0 7.032804280800034e-10
3460.0 1.8026859927045185e-09
3470.0 3.323815342120646e-11
3480.0 3.582366154757538e-07
3490.0 2.1672544978826274e-06
3500.0 9.299445030853576e-08
3510.0 1.7996309054035152e-09
3520.0 4.357086017694311e-10
3530.0 2.3206818166465814e-10
3540.0 6.437312847955328e-06
3550.0 1.2024848625079412e-05
3560.0 3.5662281408749884e-05
3570.0 3.4920453260275833e-06
3580.0 1.8760286684112507e-06
3590.0 5.226595763846648e-06
3600.0 1.4604438042502528e-06
3610.0 6.453385716457315e-05
3620.0 0.00025520181029399833
3630.0 7.105723617353657e-05
3640.0 0.0006724755176985692
3650.0 0.00013818754659959174
3660.0 0.0007759281127235676
3670.0 0.0012765033767296104
3680.0 0.0010947178543977453
3690.0 0.0017974256849078735
3700.0 0.0028919857578326965
3710.0 0.001922220313080879
3720.0 0.0006336320398855634
3730.0 0.00034711089356358904
3740.0 0.0006939647609619134
3750.0 0.0022730978570885602
3760.0 0.004233957311916126
3770.0 0.0059800660973232285
3780.0 0.004023838506508528
3790.0 0.003999075254209807
3800.0 0.0008249093506541935
3810.0 0.0051954331255974475
3820.0 0.006517939434749735
3830.0 0.0066197730136662225
3840.0 0.007297385604906945
3850.0 0.004565431447570194
3860.0 0.0007077227828705633
3870.0 0.0010978481324463794
3880.0 0.002086859075952041
3890.0 0.002733784205442485
3900.0 0.002000377484806686
3910.0 0.0014505340507548613
3920.0 0.005344334608656603
3930.0 0.0028320782553424165
3940.0 0.003182465611722895
3950.0 0.003556363627232012
3960.0 0.0032745633584528385
3970.0 0.002018110830083068
3980.0 0.0012865158042587824
3990.0 0.0010307146118588612
4000.0 0.0015669781669281208
4010.0 0.0005740346336354198
4020.0 0.0004314258964322935
4030.0 2.9746853310765586e-05
4040.0 2.091829917673291e-06
4050.0 3.409817788435647e-06
4060.0 0.00042811750724180937
4070.0 0.002378810052547213
4080.0 0.0026345075821820095
4090.0 0.0033236156005715107
4100.0 0.004689778894165742
4110.0 0.012139668874642913
4120.0 0.016234639001480103
4130.0 0.01790160577925651
4140.0 0.02823750939780023
4150.0 0.01853308482470681
4160.0 0.019696167569094782
4170.0 0.0014906924293433491
4180.0 0.010070903952885282
4190.0 0.0017421516265557738
4200.0 0.012586927732619827
4210.0 0.015892515631332607
4220.0 0.029575570235241096
4230.0 0.019826513432855592
4240.0 0.028810880535998777
4250.0 0.010277657161347393
4260.0 0.007944091689633665
4270.0 0.009425447991000856
4280.0 0.00973147890614923
4290.0 0.008199618858142061
4300.0 0.029257454574784184
4310.0 0.03842931105881717
4320.0 0.05155789816447964
4330.0 0.056814602822953905
4340.0 0.05176928542042181
4350.0 0.11310623533562798
4360.0 0.12543290998512285
4370.0 0.18985952633400643
4380.0 0.21605401294301646
4390.0 0.245221507239167
4400.0 0.17505679967304272
4410.0 0.20108708840281841
4420.0 0.1210807162893205
4430.0 0.13404116526197435
4440.0 0.20769411377464972
4450.0 0.25310467534085435
4460.0 0.2732100158251041
4470.0 0.3705764083860926
4480.0 0.17165238713142783
4490.0 0.4278806502702263
4500.0 0.12256082692775896
4510.0 0.3042385786779501
4520.0 0.23882125119797765
4530.0 0.2527797091367222
4540.0 0.32412293014780075
4550.0 0.2141715703958799
4560.0 0.3223700420941122
4570.0 0.3555427869634906
4580.0 0.3124245047410106
4590.0 0.15460294063475963
4600.0 0.07929880886037749
4610.0 0.014238508468426126
4620.0 0.16280851502336824
4630.0 0.034591708258903474
4640.0 0.1581489235180708
4650.0 0.030511539108084223
4660.0 0.23279336093660802
4670.0 0.4420829348983341
4680.0 0.36956633729844446
4690.0 0.36131845284829617
4700.0 0.8998293592331446
4710.0 0.32704634212984085
4720.0 0.12462984312762475
4730.0 0.09611438905927222
4740.0 0.5372040569980283
4750.0 0.7580098245770912
4760.0 0.3632911210369018
4770.0 0.5517514266959727
4780.0 0.27336659311049616
4790.0 0.25974396813741146
4800.0 0.5319772934999815
4810.0 0.23723100758428056
4820.0 0.19549910633850323
4830.0 0.23014664704734497
4840.0 0.08699029543233684
4850.0 0.03999209451706656
4860.0 0.05071855136095324
4870.0 0.035743876027382326
4880.0 0.02319684535444921
4890.0 0.02029875865185618
4900.0 0.010058059774989848
4910.0 0.007220320102285953
4920.0 0.0040578691462204225
4930.0 0.005768836699275699
4940.0 0.00562019068521891
4950.0 0.0021888183109919374
4960.0 0.0034022722974614756
4970.0 0.0031345459870945375
4980.0 0.0018651165567355108
4990.0 0.001682725352630011
5000.0 0.0011318775874999904
5010.0 0.0007159224174500438
5020.0 0.00045129495350071543
5030.0 0.00033580196337644
5040.0 0.00031487770325340915
5050.0 0.0003305446958320363
5060.0 0.0003257863337601486
5070.0 0.0003577726053879349
5080.0 0.0003990865109449967
5090.0 0.00040104583538086083
5100.0 0.0003380310317062595
5110.0 0.0003715580425000278
5120.0 0.00031508073545995425
5130.0 0.0002998627923331377
5140.0 0.0003073505246283408
5150.0 0.00032444903480295596
5160.0 0.00033891074581660356
5170.0 0.0003022280016567616
5180.0 0.00028117846494397106
5190.0 0.0003212389207666931
5200.0 0.00020409812496899088
5210.0 0.00033510260462999857
5220.0 0.0003599126459999905
5230.0 0.00029973140475655956
5240.0 0.00034184652992692486
5250.0 0.00034767722689998937
5260.0 0.0003494078879799738
5270.0 0.00032596693563811144
5280.0 0.0003190468452178529
5290.0 0.0003711973181659931
5300.0 0.0003383943995896009
5310.0 0.0003914360828999735
5320.0 0.0003970426054449313
5330.0 0.0003680674397186659
5340.0 0.00034593642810046776
5350.0 0.00037796391426185436
5360.0 0.00037307448145211384
5370.0 0.00038251611611214703
5380.0 0.0003943720593433005
5390.0 0.0004371011889700766
5400.0 0.000385356586189037
5410.0 0.0004387872211697715
5420.0 0.0004450112808499506
5430.0 0.0004527152394519958
5440.0 0.0004641992415069199
5450.0 0.00045490521179055235
5460.0 0.0004326024746306134
5470.0 0.0004820003320838986
5480.0 0.0004976266127999998
5490.0 0.0004831832588889886
5500.0 0.0004996398972300277
5510.0 0.0005429163997949702
5520.0 0.0005463413193999894
5530.0 0.000546460987480061
5540.0 0.0005817756742068245
5550.0 0.0004733240217604978
5560.0 0.000503034692750613
5570.0 0.0005835002202499559
5580.0 0.0006004505112101284
5590.0 0.0006374892449999471
5600.0 0.0006368992111000671
5610.0 0.0006249943679998782
5620.0 0.0004939705380004033
5630.0 0.0005956071118634445
5640.0 0.0005690690062304866
5650.0 0.00066221549109193
5660.0 0.0006620642223415035
5670.0 0.0006563574124000983
5680.0 0.0006255530068909395
5690.0 0.0007081979803823588
5700.0 0.0006841145689549538
5710.0 0.000703249360499986
5720.0 0.0006924655970000776
5730.0 0.0007046105478930511
5740.0 0.0006955719240000851
5750.0 0.0006506030017755123
5760.0 0.0006991036387535293
5770.0 0.0005975699098949392
5780.0 0.0006832686533134431
5790.0 0.0007059815295001346
5800.0 0.0006964733877489835
5810.0 0.000721274935999997
5820.0 0.0006840529727600272
5830.0 0.0006350894936109992
5840.0 0.0005969992819387565
5850.0 0.0006454448933999647
5860.0 0.000634567133499969
5870.0 0.0005225378494665306
5880.0 0.000240262727654896
5890.0 1.0752072316003762e-05
5900.0 6.735972099998486e-05
5910.0 0.00043961577720449604
5920.0 0.0007435948270000121
5930.0 0.0008315412795305205
5940.0 0.0009643949489999742
5950.0 0.0011363880007005786
5960.0 0.0012401161250000237
5970.0 0.0013189717849499774
5980.0 0.0013956731696002193
5990.0 0.0015788158552697679
6000.0 0.0017723444049999983
6010.0 0.0018491499487050663
6020.0 0.0020326619889998567
6030.0 0.0023875679961965625
6040.0 0.002596618965000087
6050.0 0.0028094329249999123
6060.0 0.0029503914788308323
6070.0 0.0031859422100003797
6080.0 0.003278451925045202
6090.0 0.003855701255000033
6100.0 0.004036499304374209
6110.0 0.004415349259999962
6120.0 0.004704147840000011
6130.0 0.005070122044999943
6140.0 0.005532928402562308
6150.0 0.00591236589999998
6160.0 0.006248225750000396
6170.0 0.006762136974999975
6180.0 0.007233314283355034
6190.0 0.00726121866609001
6200.0 0.008198962119999957
6210.0 0.008743572466720001
6220.0 0.00876582232389991
6230.0 0.009385112309484996
6240.0 0.009841941842045168
6250.0 0.011030351281152902
6260.0 0.01125022428630013
6270.0 0.012596780649999171
6280.0 0.01347245109999963
6290.0 0.014079452031828525
6300.0 0.013663689729204426
6310.0 0.01435172173421035
6320.0 0.017563627189470174
6330.0 0.018125397573499773
6340.0 0.01987889449999912
6350.0 0.021511969999999922
6360.0 0.022926131843658923
6370.0 0.024267485550000124
6380.0 0.026418752149999905
6390.0 0.028163892249997713
6400.0 0.030345301181063433
6410.0 0.03270940714999939
6420.0 0.03419828737500115
6430.0 0.035141412604249835
6440.0 0.03977498971073811
6450.0 0.04326255320000017
6460.0 0.04466604640500081
6470.0 0.04946037915624362
6480.0 0.054353299800002544
6490.0 0.05875956715000012
6500.0 0.06370567034999988
6510.0 0.0650159587493706
6520.0 0.07405522949999571
6530.0 0.07941741374999498
6540.0 0.08708983349999541
6550.0 0.09366430031027903
6560.0 0.10201204799999819
6570.0 0.11041792349999327
6580.0 0.10797559279897362
6590.0 0.1299311295000029
6600.0 0.13966548405000173
6610.0 0.1506750943000083
6620.0 0.1697605379841882
6630.0 0.17920099300000014
6640.0 0.2013190090000039
6650.0 0.2177523500000062
6660.0 0.23804263372034928
6670.0 0.25671867500000134
6680.0 0.28044415350000207
6690.0 0.3055491160000016
6700.0 0.3217906857171351
6710.0 0.3539808399999964
6720.0 0.3920190600000006
6730.0 0.3937644988489538
6740.0 0.4629006199999985
6750.0 0.4998071590000001
6760.0 0.5410208174999989
6770.0 0.5659358626263644
6780.0 0.549036574483353
6790.0 0.6547455554999795
6800.0 0.6765303930000343
6810.0 0.7145950349815202
6820.0 0.7237376914999626
6830.0 0.7416767160000306
6840.0 0.746271144210647
6850.0 0.7695749475000031
6860.0 0.727163855649992
6870.0 0.7784677495000017
6880.0 0.7617587993694317
6890.0 0.7129010599999672
6900.0 0.6949564674999767
6910.0 0.6628442625000305
6920.0 0.5437848759709857
6930.0 0.6064612339999291
6940.0 0.5636727031569728
6950.0 0.5991073049999909
6960.0 0.5804199160744246
6970.0 0.6036806814999996
6980.0 0.6008562545000319
6990.0 0.5222877852107332
7000.0 0.6207234344999686
7010.0 0.6779781729999778
7020.0 0.7084285480000038
7030.0 0.7239297921628469
7040.0 0.7632065765000355
7050.0 0.7524750674999974
7060.0 0.7863907015000026
7070.0 0.7826632454208445
7080.0 0.7844047299999496
7090.0 0.7160128261499029
7100.0 0.7396162354618759
7110.0 0.7972145674999866
7120.0 0.8257113164999569
7130.0 0.7962499133029493
7140.0 0.8025952367130563
7150.0 0.8203068695000889
7160.0 0.7715491210002023
7170.0 0.695046501500121
7180.0 0.7411235939843792
7190.0 0.7251462939999934
7200.0 0.6761477677129749
7210.0 0.7143039470021407
7220.0 0.6929410064999703
7230.0 0.694131618499959
7240.0 0.6808745750001011
7250.0 0.6636448724852285
7260.0 0.6386729875001476
7270.0 0.6227276150000303
7280.0 0.5925087425001494
7290.0 0.5742824169252746
7300.0 0.5604360884999303
7310.0 0.5607420755000243
7320.0 0.5394534780001142
7330.0 0.4970676585375328
7340.0 0.5047796610000325
7350.0 0.4892085099999391
7360.0 0.47083412516268663
7370.0 0.456608093999995
7380.0 0.45523349299998095
7390.0 0.4421977780000101
7400.0 0.37457038657092107
7410.0 0.39035520749997055
7420.0 0.39145907349997455
7430.0 0.4036984754999924
7440.0 0.36443756580924275
7450.0 0.33958369750000106
7460.0 0.338517790000007
7470.0 0.373295342708425
7480.0 0.3362698325000095
7490.0 0.2875402235000014
7500.0 0.29878941349999694
7510.0 0.31469637814032086
7520.0 0.2659896845000068
7530.0 0.2579260704999969
7540.0 0.2662967744999851
7550.0 0.2315174182764522
7560.0 0.22028149899998506
7570.0 0.21183314199999903
7580.0 0.1980163179748917
7590.0 0.19365593107587692
7600.0 0.17949539049999894
7610.0 0.16782751699999987
7620.0 0.14928458537683917
7630.0 0.12728415499999934
7640.0 0.058543823749999335
7650.0 0.004838024724999774
7660.0 0.0008782054794315026
7670.0 0.00099264747799995
7680.0 0.002932280589999985
7690.0 0.001916556760000046
7700.0 0.001101589361525372
7710.0 0.0036650925199996857
7720.0 0.025272678404996925
7730.0 0.08339947397658115
7740.0 0.15064383500000375
7750.0 0.20994682850001523
7760.0 0.258855730500002
7770.0 0.2986046614953476
7780.0 0.33174550400000075
7790.0 0.3595366240000002
7800.0 0.22133627715119678
7810.0 0.43739828165349115
7820.0 0.49524073749999675
7830.0 0.5548049025000001
7840.0 0.6032469253328467
7850.0 0.6628145509999935
7860.0 0.7261491194999936
7870.0 0.7889461374999607
7880.0 0.8700266143028178
7890.0 0.95318247949996
7900.0 1.0537863199999524
7910.0 1.161706065000011
7920.0 1.2558527109398465
7930.0 1.3333546799999991
7940.0 1.24682690499998
7950.0 0.7784426123171018
7960.0 1.696329559999925
7970.0 1.9111414700000082
7980.0 2.1129822349999476
7990.0 2.316553471123987
8000.0 2.5394824999999486
8010.0 2.7783028499999496
8020.0 3.0112935750000096
8030.0 3.218728574216763
8040.0 3.4362049500001124
8050.0 3.7398871999998438
8060.0 4.041977380000081
8070.0 4.346181971274217
8080.0 4.696773380000108
