#lam[Angstrom] flux[erg/cm2/s/A]
1010.0 3.364437950912596e-58
1020.0 1.2056779036264849e-57
1030.0 1.9141505836627064e-57
1040.0 3.303615493192805e-61
1050.0 5.289303376341673e-68
1060.0 1.5218458005918048e-68
1070.0 2.038700467756077e-57
1080.0 5.959100282183342e-53
1090.0 1.0259098145197941e-53
1100.0 2.1995265939578768e-54
1110.0 1.7821451482348757e-51
1120.0 3.9649813513171747e-51
1130.0 2.660889127619748e-50
1140.0 1.9909063147927954e-49
1150.0 2.643430340293703e-49
1160.0 5.9433958213147304e-49
1170.0 1.9915741748471617e-48
1180.0 2.443503248551596e-48
1190.0 9.586893332971548e-48
1200.0 1.833885713308403e-47
1210.0 4.046027244768698e-47
1220.0 4.438280313882895e-47
1230.0 1.6179752353736305e-46
1240.0 2.6122154302893983e-46
1250.0 6.326271041955327e-46
1260.0 8.79229569594538e-46
1270.0 1.9252728046631645e-45
1280.0 3.070507677289421e-45
1290.0 6.200547068560676e-45
1300.0 1.0367757780427638e-44
1310.0 1.5165204077206937e-44
1320.0 4.546222467704682e-40
1330.0 1.3949150716799534e-39
1340.0 2.854721914519665e-39
1350.0 5.802793822632581e-39
1360.0 1.0916683331023974e-38
1370.0 2.1048948460272036e-38
1380.0 3.7903613723270855e-38
1390.0 7.063042068218555e-38
1400.0 5.089053101849434e-38
1410.0 1.7580230768575067e-37
1420.0 4.827558920827637e-37
1430.0 8.761879002323566e-37
1440.0 1.3258686942336644e-36
1450.0 1.540645782246738e-36
1460.0 1.4733252315294594e-36
1470.0 7.506069980869699e-36
1480.0 1.423554919630009e-35
1490.0 2.1914914312412167e-35
1500.0 4.381160979102271e-35
1510.0 7.205240547988129e-35
1520.0 1.206034527825408e-34
1530.0 1.5883365287896527e-34
1540.0 2.033902302761676e-34
1550.0 2.8564468645838307e-34
1560.0 3.935908926204467e-34
1570.0 1.4769305062417542e-34
1580.0 1.6576523801923076e-37
1590.0 1.2632889769779339e-39
1600.0 2.1815857924420668e-35
1610.0 4.778291972282068e-34
1620.0 1.1259175644264138e-39
1630.0 4.007308182589747e-39
1640.0 4.6302731389709726e-38
1650.0 2.7686164583105665e-33
1660.0 7.950117502347291e-33
1670.0 1.9777572097368895e-33
1680.0 4.240105638116915e-35
1690.0 2.445887400752352e-35
1700.0 6.784111700380208e-37
1710.0 5.13870807543549e-39
1720.0 9.867892109517029e-36
1730.0 4.218886607171654e-33
1740.0 9.8916445566162e-32
1750.0 7.74106186163392e-31
1760.0 1.5492532711987274e-29
1770.0 4.4065495675423834e-29
1780.0 5.584248558158897e-29
1790.0 1.4720999262322436e-28
1800.0 2.608942959957891e-28
1810.0 1.5599135989628558e-28
1820.0 3.5878750615065554e-28
1830.0 2.3604788014432586e-28
1840.0 3.869931209634402e-30
1850.0 1.4512173607353684e-29
1860.0 7.8819614058819215e-28
1870.0 2.4366529895889743e-27
1880.0 3.574656608491232e-27
1890.0 4.3029899149392935e-27
1900.0 1.054376490274982e-26
1910.0 1.2749208423662808e-26
1920.0 1.7270515463976657e-26
1930.0 2.7109897281106065e-27
1940.0 1.16311552654978e-26
1950.0 2.0247089380773251e-26
1960.0 8.062346550911063e-29
1970.0 4.7680812878229485e-27
1980.0 3.0717171624732506e-26
1990.0 5.260756105693239e-26
2000.0 3.827070936225103e-26
2010.0 1.3822999165329785e-26
2020.0 1.0251922457901602e-26
2030.0 1.1821645704779496e-26
2040.0 6.946315004412088e-27
2050.0 2.897868301829822e-26
2060.0 3.110287635538598e-26
2070.0 3.558131392760992e-30
2080.0 2.0445665377177462e-26
2090.0 7.947325883106221e-27
2100.0 1.8380108904984182e-26
2110.0 7.622383053663361e-27
2120.0 3.1980830314407003e-27
2130.0 5.8919987002782586e-30
2140.0 7.331253379654325e-34
2150.0 1.241710257043071e-27
2160.0 2.86972387556393e-26
2170.0 8.135785982552045e-27
2180.0 7.868514125423856e-27
2190.0 4.266987320185653e-25
2200.0 7.816089601146941e-25
2210.0 4.696916798719697e-25
2220.0 3.481417223044778e-24
2230.0 6.440588875628544e-25
2240.0 4.704046339733019e-24
2250.0 4.160222552662279e-24
2260.0 3.788975986495577e-24
2270.0 4.690620348364277e-24
2280.0 1.8507761722705568e-24
2290.0 1.4899584555917279e-25
2300.0 3.695273420689548e-26
2310.0 4.359584035611175e-27
2320.0 6.172455460262466e-26
2330.0 1.47308749135733e-24
2340.0 2.5153635493374566e-24
2350.0 1.7606090815520966e-24
2360.0 5.906699441584724e-25
2370.0 2.507533935547406e-25
2380.0 4.393656205749383e-25
2390.0 3.243843282960652e-26
2400.0 4.014280877598272e-27
2410.0 4.638753802493296e-36
2420.0 2.762721135032442e-30
2430.0 1.0590521135792079e-29
2440.0 1.0881100828565425e-24
2450.0 8.890710083405887e-24
2460.0 4.9741586030857503e-23
2470.0 7.797401456845932e-23
2480.0 4.1000493729954083e-22
2490.0 4.337614316713588e-22
2500.0 4.394144498641883e-23
2510.0 3.0203309557739323e-23
2520.0 2.159411565691187e-26
2530.0 4.358108798480261e-25
2540.0 8.762816271996106e-23
2550.0 1.1018731611015095e-21
2560.0 2.1623939071808755e-21
2570.0 8.3005445074424165e-22
2580.0 6.948959085122224e-21
2590.0 4.942433644476799e-21
2600.0 1.8939054116501707e-20
2610.0 2.4256178232828053e-20
2620.0 2.7102135769958934e-20
2630.0 6.836238186127902e-21
2640.0 1.9557930364688377e-20
2650.0 3.96888143319965e-21
2660.0 9.539726067456063e-21
2670.0 5.553392326559472e-20
2680.0 9.687466260671022e-20
2690.0 4.6153234895650594e-20
2700.0 1.2644104811499993e-19
2710.0 3.540901246691254e-20
2720.0 1.2085843909716803e-19
2730.0 2.6675144198688523e-19
2740.0 3.4090455559681615e-19
2750.0 3.17917708159314e-19
2760.0 2.8524391541282594e-19
2770.0 5.182146161407359e-19
2780.0 7.194958926444628e-19
2790.0 8.905623922983645e-19
2800.0 1.0622472399999357e-18
2810.0 1.0487368987091586e-18
2820.0 1.1347073349487423e-18
2830.0 9.617100750399206e-19
2840.0 1.7897260251500453e-18
2850.0 1.81529358410785e-18
2860.0 7.257593621184966e-14
2870.0 1.8315403661783317e-13
2880.0 2.995816913252564e-12
2890.0 1.866013890350777e-10
2900.0 1.8578400555674596e-09
2910.0 3.3469839197821426e-09
2920.0 4.7037164464642116e-09
2930.0 8.553539334000037e-10
2940.0 6.91465013119651e-11
2950.0 5.422159128124149e-10
2960.0 5.98702989550184e-09
2970.0 4.861992569357432e-09
2980.0 6.835942432971337e-10
2990.0 2.4603915812259355e-12
3000.0 2.25389960926625e-10
3010.0 8.743201979070082e-11
3020.0 4.6031056649086924e-11
3030.0 6.275566515931029e-11
3040.0 2.236200133400323e-14
3050.0 8.898300010269257e-15
3060.0 1.6945402288242574e-13
3070.0 5.301597535364384e-13
3080.0 4.505604788730885e-15
3090.0 3.682229094066219e-12
3100.0 6.949921620033864e-10
3110.0 7.443810279645712e-09
3120.0 2.5789484449881842e-09
3130.0 5.605348347109172e-10
3140.0 8.254973924322426e-11
3150.0 8.827468115512529e-10
3160.0 2.075490822969688e-09
3170.0 9.108506993724582e-09
3180.0 1.0773771611970648e-07
3190.0 1.297868945562393e-08
3200.0 1.2644668318412078e-08
3210.0 2.6993800805503424e-08
3220.0 2.7157593081322872e-08
3230.0 2.172110621663574e-08
3240.0 3.679551792118198e-09
3250.0 3.5898706309087975e-09
3260.0 3.3841391782091626e-09
3270.0 7.732649454469327e-10
3280.0 2.2074273506452985e-10
3290.0 9.140539546279382e-11
3300.0 1.2570639851423614e-11
3310.0 4.37751899011365e-11
3320.0 2.8081531299017754e-10
3330.0 8.002219255760768e-10
3340.0 6.708694074220196e-09
3350.0 1.6453033634841515e-08
3360.0 3.117518872661283e-08
3370.0 4.231714513703801e-08
3380.0 4.19300325001135e-08
3390.0 1.660057597024542e-08
3400.0 9.021912491636695e-10
3410.0 6.395568915709693e-14
3420.0 9.159729095466271e-11
3430.0 7.555795333563392e-11
3440.0 7.474221090101226e-11
3450.0 5.175204540294273e-12
3460.0 5.921140306055007e-13
3470.0 4.274421290348807e-15
3480.0 2.7899168711216764e-10
3490.0 3.3140944230281766e-09
3500.0 1.8846637852150712e-10
3510.0 2.6164655822263564e-12
3520.0 1.775002373884974e-13
3530.0 1.0858079081806513e-13
3540.0 7.040994743394105e-09
3550.0 2.568265628272551e-08
3560.0 1.7606051242197245e-07
3570.0 1.2458977492813913e-08
3580.0 7.692782088664626e-09
3590.0 4.045175710328745e-08
3600.0 5.566216053680871e-09
3610.0 2.5836314718417865e-06
3620.0 1.121676520810462e-05
3630.0 8.928208569530156e-07
3640.0 1.725976091023879e-05
3650.0 1.1629737834727985e-06
3660.0 1.218961129862281e-05
3670.0 4.0672798579503746e-05
3680.0 3.8019259808929656e-05
3690.0 5.1171793912766944e-05
3700.0 0.0001116889360675915
3710.0 7.898214382836421e-05
3720.0 2.251379373254813e-05
3730.0 1.9248923408657945e-05
3740.0 4.19478444234559e-05
3750.0 9.108755194512539e-05
3760.0 0.0001382297243487597
3770.0 0.00020969002966044964
3780.0 0.00010134314098811159
3790.0 8.390879018289994e-05
3800.0 4.658163779155292e-06
3810.0 0.00014538197560231972
3820.0 0.00033353911529499365
3830.0 0.0003102086400751448
3840.0 0.00028675481138498536
3850.0 0.00017931375334984427
3860.0 3.844636264648414e-05
3870.0 1.3794340043454691e-05
3880.0 8.330274811574378e-05
3890.0 0.00012499982652389708
3900.0 7.140849075948163e-05
3910.0 2.305950474426147e-05
3920.0 0.000290141121000754
3930.0 0.00019264698135607332
3940.0 0.00013863743535379823
3950.0 0.0001714819712668731
3960.0 0.0002525641216603336
3970.0 0.0001231006260054566
3980.0 5.531078817909815e-05
3990.0 6.628622697878557e-05
4000.0 0.00020657236200600322
4010.0 3.351305835500605e-05
4020.0 2.717353633214416e-05
4030.0 3.9251445752106193e-07
4040.0 3.040764029469873e-08
4050.0 8.842083782801539e-08
4060.0 1.4565230808893113e-05
4070.0 0.00018473600325292442
4080.0 0.000193311168751208
4090.0 0.0002012964094257015
4100.0 0.0003707598519514116
4110.0 0.000989237700488883
4120.0 0.0014007084255500213
4130.0 0.0012734577962601008
4140.0 0.0018872039287500032
4150.0 0.0007797048288890665
4160.0 0.0006008224134790195
4170.0 1.0898445177430352e-05
4180.0 0.00012441746851754023
4190.0 6.970142793352715e-06
4200.0 0.0002766501193292649
4210.0 0.0004656699417842538
4220.0 0.001950409595337089
4230.0 0.0011807906666646895
4240.0 0.004639094018800123
4250.0 0.002478697620911116
4260.0 0.001255268870129559
4270.0 0.002227473864788367
4280.0 0.002642117697304032
4290.0 0.002500865377091865
4300.0 0.0038637971484122373
4310.0 0.0034790198982697423
4320.0 0.003240605514546988
4330.0 0.0035733540073959137
4340.0 0.0023078933765300273
4350.0 0.009023022253462522
4360.0 0.008397382513639452
4370.0 0.0161011252816568
4380.0 0.019162149080704197
4390.0 0.02056125416630377
4400.0 0.010353542698779252
4410.0 0.011729062418488347
4420.0 0.0045620353852855
4430.0 0.004395787345996339
4440.0 0.010808097854164988
4450.0 0.01293948738757966
4460.0 0.017445697663274834
4470.0 0.023789049176454555
4480.0 0.006433359043068843
4490.0 0.02914413368531657
4500.0 0.0035181908835712206
4510.0 0.013991878043083498
4520.0 0.009585302084141604
4530.0 0.010784756678718458
4540.0 0.011715727674178384
4550.0 0.007001153701324248
4560.0 0.013964400056486529
4570.0 0.018220415627047258
4580.0 0.015139088727989494
4590.0 0.00514039395549237
4600.0 0.006006662166595443
4610.0 0.0006387535943612752
4620.0 0.005935877940938888
4630.0 0.0003639093009714725
4640.0 0.0038322214148936986
4650.0 0.0002506460639936906
4660.0 0.005207098809768215
4670.0 0.01746529350940768
4680.0 0.012277926558207619
4690.0 0.011041132678826908
4700.0 0.04578128083862024
4710.0 0.007650016647063752
4720.0 0.0015547300031508247
4730.0 0.0012785007134272263
4740.0 0.019227579799355896
4750.0 0.03276156115203522
4760.0 0.011058429367364469
4770.0 0.019106938452555955
4780.0 0.006731981005688549
4790.0 0.006022635274859605
4800.0 0.015268452174999756
4810.0 0.006007760013421744
4820.0 0.004179516341331214
4830.0 0.005363376906716055
4840.0 0.001846734797383237
4850.0 0.0006572967157146767
4860.0 0.001119565013090879
4870.0 0.0008363958239736149
4880.0 0.0005800977176576097
4890.0 0.0005608372301764628
4900.0 0.0002668282148299223
4910.0 0.00018097351084333916
4920.0 8.868949243632498e-05
4930.0 0.00016828345634428292
4940.0 0.00022711786866377694
4950.0 8.277763952185959e-05
4960.0 0.00018787920229484945
4970.0 0.00024405526155497483
4980.0 0.00017677796807378504
4990.0 0.00021835916270000096
5000.0 0.00020577253549999944
5010.0 0.00016307653580000325
5020.0 0.00010941229139009458
5030.0 8.463456137219385e-05
5040.0 9.180403115596234e-05
5050.0 0.0001095380901179193
5060.0 0.00010549071206429332
5070.0 0.00012617698868711062
5080.0 0.00014257070730649792
5090.0 0.0001573610796687072
5100.0 0.0001281183117312975
5110.0 0.0001758693470000075
5120.0 0.0001470494682649955
5130.0 0.0001335247502647556
5140.0 0.00013718007652138437
5150.0 0.00015858191619380255
5160.0 0.00017157229284663674
5170.0 0.00013912460931286648
5180.0 0.00013025711082626532
5190.0 0.0001768388239585706
5200.0 6.94543457115128e-05
5210.0 0.00018192821652000097
5220.0 0.0002164500204999955
5230.0 0.00015007559917107612
5240.0 0.00020227582929636294
5250.0 0.00021510792879999988
5260.0 0.00021728501459649475
5270.0 0.00018434261092249853
5280.0 0.00017165946465849387
5290.0 0.0002395281329579926
5300.0 0.00020313960099040316
5310.0 0.00026696131534999673
5320.0 0.0002742076234611246
5330.0 0.0002320706940834567
5340.0 0.00019647778535640707
5350.0 0.0002423242534180675
5360.0 0.00023067779841081634
5370.0 0.0002351676876211957
5380.0 0.0002502519339194052
5390.0 0.00030385323075768236
5400.0 0.00023951554134885207
5410.0 0.00031020567568067615
5420.0 0.00031204056934999383
5430.0 0.00031882994589884197
5440.0 0.0003252126038569101
5450.0 0.0003145027748825437
5460.0 0.0002741670495990248
5470.0 0.00034569645731158296
5480.0 0.0003553781004115111
5490.0 0.0003369618922976983
5500.0 0.00034958800754107406
5510.0 0.0004155366137894714
5520.0 0.0004217491922499931
5530.0 0.00042074266350000417
5540.0 0.0004704233145330935
5550.0 0.00029514873379847377
5560.0 0.00033054501267470483
5570.0 0.0004626367433284875
5580.0 0.0004804243959063454
5590.0 0.0005376416774999902
5600.0 0.0005332601110000186
5610.0 0.0005163974369999728
5620.0 0.00028699058928044447
5630.0 0.00043756001794984536
5640.0 0.0004078232548172708
5650.0 0.0005629323422880519
5660.0 0.0005661535592256116
5670.0 0.0005396614354600527
5680.0 0.0005174500116495756
5690.0 0.0006480249510059094
5700.0 0.0005989449960896135
5710.0 0.0006410081839999849
5720.0 0.0006225469130000058
5730.0 0.0006453928239915848
5740.0 0.0006283458635000286
5750.0 0.0005306683941550846
5760.0 0.0006293283256069722
5770.0 0.00046286791988784954
5780.0 0.0006057532596290247
5790.0 0.0006444861215000304
5800.0 0.0006233005804724321
5810.0 0.0006519841119999978
5820.0 0.0005612671260000135
5830.0 0.00044837444270584033
5840.0 0.0003772593462511957
5850.0 0.00040994927525000015
5860.0 0.00035703953484999347
5870.0 0.00019379702858338463
5880.0 4.468974136723051e-05
5890.0 1.022291543692049e-05
5900.0 1.7982060772313554e-05
5910.0 0.00011191440251726171
5920.0 0.0003576402100500211
5930.0 0.0005095656804397816
5940.0 0.0006876564449152407
5950.0 0.0009459998168850664
5960.0 0.001091165774999926
5970.0 0.0011533799651700877
5980.0 0.00119690881340013
5990.0 0.0014235651093485048
6000.0 0.0016581862000000374
6010.0 0.00165115805322952
6020.0 0.0018099766329498369
6030.0 0.0022684750985886917
6040.0 0.0024453331800001615
6050.0 0.002605356554999976
6060.0 0.002632889021619423
6070.0 0.0028095768650001625
6080.0 0.0026940602669334847
6090.0 0.003426428570000026
6100.0 0.0034313655910320874
6110.0 0.0037974899200000126
6120.0 0.00401416414500002
6130.0 0.004293124875000019
6140.0 0.004676459259333405
6150.0 0.004950407149999997
6160.0 0.005157668400000108
6170.0 0.005566960424999998
6180.0 0.005869986149034188
6190.0 0.005480726573281647
6200.0 0.006579137909999999
6210.0 0.006974834593133796
6220.0 0.0065151278102381725
6230.0 0.006967729044659097
6240.0 0.007204677545570947
6250.0 0.008506441349714657
6260.0 0.008158080191304136
6270.0 0.00956171799499939
6280.0 0.010172058549999873
6290.0 0.010040966059453494
6300.0 0.009068549975862789
6310.0 0.009087009712596041
6320.0 0.01277007643379029
6330.0 0.012583147371350283
6340.0 0.014122037950000013
6350.0 0.01529763749999979
6360.0 0.016113808432588958
6370.0 0.016765259399999767
6380.0 0.018122953849999908
6390.0 0.01878445769999857
6400.0 0.02002110774697257
6410.0 0.021302508999999532
6420.0 0.021360073850000303
6430.0 0.020887039302131396
6440.0 0.02404474172254999
6450.0 0.026016416399999652
6460.0 0.025258124944999533
6470.0 0.027842739475533777
6480.0 0.030182432750003742
6490.0 0.03212762454999884
6500.0 0.03415352099999974
6510.0 0.03222987855399481
6520.0 0.0370160237499954
6530.0 0.0386828024999964
6540.0 0.041368989800001976
6550.0 0.042927470908820174
6560.0 0.04588225669999895
6570.0 0.04817603414999326
6580.0 0.042343620659523844
6590.0 0.05362606250000262
6600.0 0.055409436744999006
6610.0 0.05730187313500539
6620.0 0.06376764257832329
6630.0 0.06372491430000217
6640.0 0.07045691605000012
6650.0 0.07375731174999976
6660.0 0.07818565905314774
6670.0 0.08192874690000036
6680.0 0.08690026815000092
6690.0 0.0917885836500006
6700.0 0.09309626173055546
6710.0 0.10124882099999916
6720.0 0.10675045750000023
6730.0 0.09985285230707257
6740.0 0.11843919999999974
6750.0 0.12394587149999971
6760.0 0.1302023514999998
6770.0 0.13158251636472898
6780.0 0.11753796792638353
6790.0 0.14781911799999825
6800.0 0.14940292700000568
6810.0 0.1574981521869702
6820.0 0.15546309849999673
6830.0 0.1561436496500013
6840.0 0.15698784083834003
6850.0 0.16479111349999936
6860.0 0.15121662848319828
6870.0 0.17147939050000074
6880.0 0.1726141752076864
6890.0 0.166981352499996
6900.0 0.16455388749999494
6910.0 0.16052465200001598
6920.0 0.11951461783036056
6930.0 0.14684756899996537
6940.0 0.13588701334934156
6950.0 0.1550832840000026
6960.0 0.14969921264136007
6970.0 0.16159363799999762
6980.0 0.1554402130000197
6990.0 0.12366605540167618
7000.0 0.1578603024999855
7010.0 0.17281066099997863
7020.0 0.17726737750000027
7030.0 0.17871610994891793
7040.0 0.18933544200002161
7050.0 0.18308242939999386
7060.0 0.19698181200000087
7070.0 0.19767060669599854
7080.0 0.19955328499997033
7090.0 0.17372495609995736
7100.0 0.18000822015813633
7110.0 0.19770466599998826
7120.0 0.20494571099999104
7130.0 0.19265277562067185
7140.0 0.19940224431988013
7150.0 0.20830307940003284
7160.0 0.18699306810006636
7170.0 0.1548004867960002
7180.0 0.18306240657086528
7190.0 0.18165437206502122
7200.0 0.16516286469252042
7210.0 0.19299187298559595
7220.0 0.19025049049997805
7230.0 0.1916313143399684
7240.0 0.19200575325001065
7250.0 0.18843159952452254
7260.0 0.18690282750003287
7270.0 0.19190208658002855
7280.0 0.18553718870004915
7290.0 0.1790647299219343
7300.0 0.1748556093649719
7310.0 0.1836273035500422
7320.0 0.18234242245004342
7330.0 0.1663566252141415
7340.0 0.18126614450000852
7350.0 0.17843972579998896
7360.0 0.1774029696227015
7370.0 0.17293062850000807
7380.0 0.17595115849998055
7390.0 0.17572908600001136
7400.0 0.14171213213056844
7410.0 0.16440877799998405
7420.0 0.16639611699998164
7430.0 0.17363335549999703
7440.0 0.15741909338405372
7450.0 0.1580709940000024
7460.0 0.15202892899999854
7470.0 0.16755280992892604
7480.0 0.1584384410000073
7490.0 0.14166932900000187
7500.0 0.1398089214999977
7510.0 0.14975986007406153
7520.0 0.13205427250000637
7530.0 0.12312360149999665
7540.0 0.1266607554999959
7550.0 0.11174042097888123
7560.0 0.10212992269999727
7570.0 0.09713065394999912
7580.0 0.08824667174445934
7590.0 0.08355699446806378
7600.0 0.07583707679999929
7610.0 0.06782052929999993
7620.0 0.055868191657490886
7630.0 0.043154085999999404
7640.0 0.014459756074999905
7650.0 0.0038205453249999166
7660.0 0.00434714686617963
7670.0 0.004468552979999957
7680.0 0.004002004659999932
7690.0 0.004387867044999955
7700.0 0.004782162865578946
7710.0 0.0043242620999999065
7720.0 0.00669010145999941
7730.0 0.01950396474827424
7740.0 0.05089857500000204
7750.0 0.08521070520000475
7760.0 0.11464703015000102
7770.0 0.1365207778000211
7780.0 0.15722576049999964
7790.0 0.17234861300000032
7800.0 0.09968593839999854
7810.0 0.21379094189770975
7820.0 0.2495781049999956
7830.0 0.2745280375000012
7840.0 0.289577299119229
7850.0 0.323289988499995
7860.0 0.34667879099999516
7870.0 0.3674085169999803
7880.0 0.40760524051640695
7890.0 0.4352366404999418
7900.0 0.47065993499994496
7910.0 0.5099835685000214
7920.0 0.538822837453706
7930.0 0.5704301264999951
7940.0 0.5572964225000049
7950.0 0.36337162456211214
7960.0 0.6640461839999074
7970.0 0.7185883815000068
7980.0 0.7706937014999593
