#lam[Angstrom] flux[erg/cm2/s/A]
1010.0 3.159607784813198e-51
1020.0 1.490865146627832e-50
1030.0 1.5815180761970873e-47
1040.0 2.0658672897938247e-50
1050.0 1.2852017473945603e-52
1060.0 3.117253221495364e-53
1070.0 2.507663209081208e-49
1080.0 1.6009238954772585e-44
1090.0 2.7028575856233777e-46
1100.0 7.410413078959166e-48
1110.0 1.0551286258602414e-43
1120.0 1.0512586901032431e-43
1130.0 9.067619322941111e-43
1140.0 5.754547501926841e-42
1150.0 2.745701245860983e-42
1160.0 7.799082442720957e-42
1170.0 2.173398826406851e-41
1180.0 1.7829493153318757e-41
1190.0 7.518918030696141e-41
1200.0 9.59356391992611e-41
1210.0 2.436322071237929e-40
1220.0 2.144898922026726e-40
1230.0 6.398380779237041e-40
1240.0 1.1788450922155166e-39
1250.0 2.095797052589621e-39
1260.0 3.153162724345376e-39
1270.0 5.619938811111227e-39
1280.0 8.402340188595865e-39
1290.0 1.6652137291318347e-38
1300.0 3.0271173128740783e-38
1310.0 4.6241144048842335e-38
1320.0 1.3375156383839118e-36
1330.0 3.331846358999987e-36
1340.0 5.24002182186816e-36
1350.0 8.638921828325145e-36
1360.0 1.3392319490353358e-35
1370.0 2.103320560038998e-35
1380.0 3.1720941004664717e-35
1390.0 5.173617565619105e-35
1400.0 5.135541039034865e-35
1410.0 1.1573512470646174e-34
1420.0 2.2236733893899827e-34
1430.0 3.5745687057840247e-34
1440.0 5.143660968694804e-34
1450.0 8.030185739350469e-34
1460.0 8.731450219937645e-34
1470.0 2.2855577485157707e-33
1480.0 3.801953520755357e-33
1490.0 5.761905858001274e-33
1500.0 1.0147538881500808e-32
1510.0 1.6171502925000196e-32
1520.0 2.64819158157594e-32
1530.0 3.780405302018936e-32
1540.0 5.441325587424723e-32
1550.0 8.404219846426283e-32
1560.0 1.4325083005265177e-31
1570.0 1.654730089687701e-31
1580.0 2.2858710762403728e-32
1590.0 2.191869057164769e-32
1600.0 1.7444934527080633e-31
1610.0 8.2755993202272e-31
1620.0 1.8668654661411357e-32
1630.0 6.365283128808902e-32
1640.0 1.0896395291816316e-31
1650.0 5.0302507478337304e-30
1660.0 6.341933095354815e-30
1670.0 7.16173059327952e-30
1680.0 2.8336546554086405e-30
1690.0 5.2105567022591416e-30
1700.0 1.7773275914250885e-30
1710.0 9.903856662677542e-31
1720.0 1.1931149593783261e-29
1730.0 5.382589492899876e-29
1740.0 2.1320552012212606e-28
1750.0 4.553191593761211e-28
1760.0 1.5002446715083208e-27
1770.0 2.7657747784010596e-27
1780.0 3.6426500598186974e-27
1790.0 6.744546418332854e-27
1800.0 1.1037149539000922e-26
1810.0 1.12901694585976e-26
1820.0 2.201257306059473e-26
1830.0 2.1724987047273042e-26
1840.0 1.1051390214764666e-26
1850.0 1.9042888514111305e-26
1860.0 7.360645747257845e-26
1870.0 1.2985508032699682e-25
1880.0 2.0433790349678664e-25
1890.0 2.7033823240870867e-25
1900.0 4.783159384838303e-25
1910.0 6.467156473323924e-25
1920.0 9.372397839383433e-25
1930.0 7.002293783059205e-25
1940.0 1.2794329221293047e-24
1950.0 2.0018376767347402e-24
1960.0 3.4654990320481586e-25
1970.0 2.259048859551366e-24
1980.0 4.9931753773742216e-24
1990.0 6.433597419903384e-24
2000.0 7.102486198849976e-24
2010.0 8.660620941275103e-24
2020.0 1.0405773812852615e-23
2030.0 1.3950588188261274e-23
2040.0 1.3678350186484154e-23
2050.0 2.9949553953866895e-23
2060.0 3.929594489080027e-23
2070.0 7.275825965318548e-24
2080.0 6.826215114254398e-23
2090.0 5.825400688607065e-23
2100.0 9.638448098825197e-23
2110.0 1.089998725291417e-22
2120.0 1.4079465944906042e-22
2130.0 3.7476388976875446e-23
2140.0 2.2458711218329556e-24
2150.0 2.5561927337248303e-22
2160.0 6.046339805397359e-22
2170.0 3.120121997714124e-22
2180.0 4.296863985340019e-22
2190.0 1.7486671138419225e-21
2200.0 1.8722487514144225e-21
2210.0 1.954660055030381e-21
2220.0 4.728085979424816e-21
2230.0 3.2296353347396907e-21
2240.0 7.2752852879051e-21
2250.0 7.775865811801473e-21
2260.0 1.0204385058861427e-20
2270.0 1.2573766132405022e-20
2280.0 1.2881978175659649e-20
2290.0 8.951520113273455e-21
2300.0 8.398982158533387e-21
2310.0 3.0100127035650545e-21
2320.0 1.0594807499342943e-20
2330.0 3.744137410722955e-20
2340.0 4.0738818986005487e-20
2350.0 4.0776725253482195e-20
2360.0 4.683489009561951e-20
2370.0 3.986015507966767e-20
2380.0 4.69521119135614e-20
2390.0 2.6124947714625326e-20
2400.0 9.372139678956499e-21
2410.0 1.1610174018240403e-26
2420.0 1.469374509317547e-22
2430.0 1.0907888216363954e-22
2440.0 1.706631165306917e-19
2450.0 5.803344093557319e-19
2460.0 1.027355628778182e-18
2470.0 1.2740233523253884e-18
2480.0 2.419858781079628e-18
2490.0 3.0639768251778297e-18
2500.0 1.7341993431930327e-18
2510.0 1.6670237015436421e-18
2520.0 4.631015890156162e-20
2530.0 1.8586641458379206e-19
2540.0 3.0402376762971977e-18
2550.0 9.163778334097853e-18
2560.0 1.236786964820963e-17
2570.0 9.220280885127423e-18
2580.0 2.2291761575501267e-17
2590.0 2.0428372423432017e-17
2600.0 3.968660597439858e-17
2610.0 4.602332340235722e-17
2620.0 5.336658550994464e-17
2630.0 4.2021730403427035e-17
2640.0 7.730419634341941e-17
2650.0 4.57288722331003e-17
2660.0 8.31148839330502e-17
2670.0 1.3584372831364216e-16
2680.0 1.6773606400719157e-16
2690.0 1.6724151080145867e-16
2700.0 2.7234173134163013e-16
2710.0 2.0657860141875436e-16
2720.0 3.312297142427816e-16
2730.0 4.78922790759976e-16
2740.0 5.718967232687256e-16
2750.0 6.107669031367837e-16
2760.0 7.020622044172561e-16
2770.0 9.479576080501987e-16
2780.0 1.1797995690000445e-15
2790.0 1.4164240627499556e-15
2800.0 1.6775696849999002e-15
2810.0 1.875828689350462e-15
2820.0 2.1331886064533284e-15
2830.0 2.228554026360771e-15
2840.0 3.197556494999931e-15
2850.0 2.8758957698770785e-15
2860.0 4.752581095668891e-10
2870.0 5.749514722748078e-09
2880.0 4.0193405950379624e-08
2890.0 1.8584269177031497e-07
2900.0 6.129657313000255e-07
2910.0 8.796284366910973e-07
2920.0 1.3266871716804255e-06
2930.0 8.619128340796551e-07
2940.0 2.3377144211732708e-07
2950.0 8.447094204752867e-07
2960.0 3.61398183479998e-06
2970.0 2.286290969322412e-06
2980.0 1.96621495596833e-06
2990.0 4.771407075700393e-08
3000.0 1.197817471677059e-06
3010.0 7.882320404973474e-07
3020.0 4.749682926053795e-07
3030.0 1.3656359839673007e-06
3040.0 1.1722517605327445e-08
3050.0 5.715019905401865e-09
3060.0 3.457801360704827e-08
3070.0 8.409464624266169e-08
3080.0 2.4185343164289775e-09
3090.0 2.2898585890079153e-07
3100.0 4.006928823718914e-06
3110.0 2.4796227322791414e-05
3120.0 1.411642370800166e-05
3130.0 7.60390710306522e-06
3140.0 2.1188981088448837e-06
3150.0 9.780509698865352e-06
3160.0 1.4467664525634866e-05
3170.0 3.9149235804642354e-05
3180.0 0.00012185280543805951
3190.0 3.824001581664117e-05
3200.0 4.0075584064692124e-05
3210.0 5.3278770600164436e-05
3220.0 7.469566739564132e-06
3230.0 1.5941092916955026e-05
3240.0 1.9461791214838986e-06
3250.0 6.928091088179245e-07
3260.0 5.118505830785506e-06
3270.0 6.557571085861189e-07
3280.0 7.32281222848586e-08
3290.0 7.891675431754e-09
3300.0 4.2044213143208855e-11
3310.0 5.669330683689813e-10
3320.0 1.1076638791499928e-07
3330.0 1.7294130421464315e-06
3340.0 3.048049048045071e-05
3350.0 6.0905850401172326e-05
3360.0 0.00012562157739794347
3370.0 6.396775227627231e-05
3380.0 0.00012019124180903651
3390.0 3.641261271656895e-05
3400.0 1.2467591909313595e-05
3410.0 5.275335416355287e-09
3420.0 4.3686574058959234e-06
3430.0 2.8219832556526518e-06
3440.0 1.0768879794748273e-06
3450.0 8.731778239995596e-09
3460.0 4.930508817896275e-08
3470.0 2.0809767329152596e-09
3480.0 5.920993621482619e-06
3490.0 2.4228863721838005e-05
3500.0 1.0974971162892692e-06
3510.0 3.1668195302753784e-08
3520.0 1.4056025998770732e-08
3530.0 6.6935581635743035e-09
3540.0 7.905077412626595e-05
3550.0 0.00011699807665434443
3560.0 0.0002570623689507123
3570.0 2.567119181236238e-05
3580.0 1.1604498115297425e-05
3590.0 2.8292584070700536e-05
3600.0 1.0236616167585282e-05
3610.0 0.0002508479887517783
3620.0 0.0011167281005500624
3630.0 0.0004405640016985731
3640.0 0.0036173734789498014
3650.0 0.000878542225275891
3660.0 0.004081304127842866
3670.0 0.005536870834694793
3680.0 0.0045473364288968095
3690.0 0.007282978971851948
3700.0 0.010331949036302183
3710.0 0.006971228576473111
3720.0 0.002524011185606359
3730.0 0.0014236308602078214
3740.0 0.0026141778461029335
3750.0 0.007623428962835053
3760.0 0.014172541672222497
3770.0 0.01947582462275948
3780.0 0.01336328744195744
3790.0 0.014306093461669653
3800.0 0.004208707177072992
3810.0 0.017149391376441777
3820.0 0.019295319730001478
3830.0 0.02115639630999798
3840.0 0.023027995306277003
3850.0 0.015558540964244394
3860.0 0.002383242874626293
3870.0 0.005260160457303644
3880.0 0.008036912991229928
3890.0 0.009778052374999457
3900.0 0.007502795244897756
3910.0 0.006015343492904191
3920.0 0.01865850783665942
3930.0 0.009974388800276911
3940.0 0.013408200513521148
3950.0 0.015274826587358093
3960.0 0.013328062483399385
3970.0 0.008519733722468661
3980.0 0.005053058417194676
3990.0 0.003356799156752433
4000.0 0.0037705129046502993
4010.0 0.0015228069578660946
4020.0 0.00105633125197944
4030.0 7.213547163354369e-05
4040.0 1.1738125661657656e-05
4050.0 2.3528365759557033e-05
4060.0 0.0013555103697103124
4070.0 0.006582344661695349
4080.0 0.008685155253104508
4090.0 0.012980976973359587
4100.0 0.01834211350047849
4110.0 0.04328921540073392
4120.0 0.054306770813423576
4130.0 0.06008980691071883
4140.0 0.09000627214500974
4150.0 0.06517958012559585
4160.0 0.07114546840199146
4170.0 0.008154586209955279
4180.0 0.045356201228599624
4190.0 0.010776767711582542
4200.0 0.05084515080107262
4210.0 0.06045274452750516
4220.0 0.08765031745839276
4230.0 0.0524679793999598
4240.0 0.09599093159998609
4250.0 0.027227317091731134
4260.0 0.023184973548560823
4270.0 0.02498193034035257
4280.0 0.024577375049352045
4290.0 0.020219803428548934
4300.0 0.09839797316670684
4310.0 0.13474991996243263
4320.0 0.17069181815634066
4330.0 0.16849613878302616
4340.0 0.17218786314629542
4350.0 0.2964713345263096
4360.0 0.3256052281308205
4370.0 0.44206692557072086
4380.0 0.47309429070498416
4390.0 0.5323855733000402
4400.0 0.40111988664548637
4410.0 0.44190921719891646
4420.0 0.3062942423948082
4430.0 0.3451579978025654
4440.0 0.46859024954488965
4450.0 0.5633464658342492
4460.0 0.6191185777566103
4470.0 0.7501441415502337
4480.0 0.4161040080516809
4490.0 0.8469790065558592
4500.0 0.3524699865600659
4510.0 0.6491720675934325
4520.0 0.5317858806991553
4530.0 0.5798140061791643
4540.0 0.7182153757561056
4550.0 0.5478777995032524
4560.0 0.7336981441597642
4570.0 0.6522601319219465
4580.0 0.6934905922507226
4590.0 0.4127792140094826
4600.0 0.22551701949877107
4610.0 0.04462961908821426
4620.0 0.4547788934952194
4630.0 0.13220066491846857
4640.0 0.40495538102255046
4650.0 0.14142160192792158
4660.0 0.6284827890172081
4670.0 0.9334545348305322
4680.0 0.8493529710400058
4690.0 0.8386994859468831
4700.0 1.7860511592151376
4710.0 0.8767751979555171
4720.0 0.4004881933232028
4730.0 0.345505941454673
4740.0 1.1207530373486305
4750.0 1.4785333074766744
4760.0 0.80890894486196
4770.0 1.086801713722969
4780.0 0.6344693432173323
4790.0 0.5982833780483727
4800.0 0.9428966779999829
4810.0 0.3725093874603304
4820.0 0.5340861994897286
4830.0 0.6258806630968037
4840.0 0.2943523990821719
4850.0 0.16536656179052997
4860.0 0.19983198326480656
4870.0 0.15564623009696718
4880.0 0.10626350883903352
4890.0 0.09539431189896869
4900.0 0.050601344957020566
4910.0 0.03897804897977558
4920.0 0.0233965784739877
4930.0 0.03123119651325733
4940.0 0.028716267125761325
4950.0 0.011869048863456888
4960.0 0.016849860750370753
4970.0 0.014870017549998366
4980.0 0.008844107505991789
4990.0 0.007463854636499953
5000.0 0.004743036604999957
5010.0 0.002872539965000056
5020.0 0.0017117753966389765
5030.0 0.0012060323443155115
5040.0 0.001071646337856897
5050.0 0.0010672002978680897
5060.0 0.0010471526374714736
5070.0 0.0011295968710752463
5080.0 0.0012444071735000087
5090.0 0.0012064885463418122
5100.0 0.0009847495446426782
5110.0 0.0009874604415000326
5120.0 0.0008272927299999614
5130.0 0.0007685295187176669
5140.0 0.0007824117376232618
5150.0 0.000801413133769928
5160.0 0.0008062904347999663
5170.0 0.0007162327355761225
5180.0 0.0006548586426874608
5190.0 0.0006946815941920408
5200.0 0.0004886513225614517
5210.0 0.0007047919389999697
5220.0 0.000726792560000004
5230.0 0.0006164844338810845
5240.0 0.0006667870137123484
5250.0 0.0006595420824999634
5260.0 0.000645437593999983
5270.0 0.0006058951767506587
5280.0 0.0005878602748299743
5290.0 0.0006422316090000202
5300.0 0.0005949438895399389
5310.0 0.0006432104109999409
5320.0 0.0006448920520468722
5330.0 0.000607592802430909
5340.0 0.0005739800499118057
5350.0 0.0006091468341508187
5360.0 0.0005954454305219627
5370.0 0.000599545648057197
5380.0 0.0006079516444612989
5390.0 0.0006507918265438878
5400.0 0.0005945623725094031
5410.0 0.0006439363642900004
5420.0 0.0006519368549999357
5430.0 0.0006542544915924541
5440.0 0.0006604359668640281
5450.0 0.0006526733540370279
5460.0 0.0006290590689692515
5470.0 0.0006765945732659771
5480.0 0.0006881595114999669
5490.0 0.000669015858850015
5500.0 0.0006879673746872611
5510.0 0.0007288778779999665
5520.0 0.000731228539500019
5530.0 0.0007287047565001001
5540.0 0.0007616120397357822
5550.0 0.0006638950120750398
5560.0 0.0006910706507684599
5570.0 0.0007634553914999711
5580.0 0.0007775368971574417
5590.0 0.0008120005599999772
5600.0 0.0008087491975000743
5610.0 0.0007984782624999202
5620.0 0.0006775010957096157
5630.0 0.0007731675229873858
5640.0 0.0007400702822675542
5650.0 0.0008210471232107844
5660.0 0.0008164866119999564
5670.0 0.0008146899140000509
5680.0 0.0007748241919799326
5690.0 0.0008396634520568655
5700.0 0.0008155498084999171
5710.0 0.0008238515249999888
5720.0 0.0008071900290000468
5730.0 0.0008028263785406586
5740.0 0.0007829815760000764
5750.0 0.0007303895223435252
5760.0 0.0007526561240000125
5770.0 0.0006570361599859186
5780.0 0.0006969404343499952
5790.0 0.0006863969925001093
5800.0 0.0006546503647782956
5810.0 0.0006333084380000005
5820.0 0.0005827513450000298
5830.0 0.0005109032699659916
5840.0 0.00044028715216437765
5850.0 0.00042991286599994706
5860.0 0.00039011237799999455
5870.0 0.00026039066287576957
5880.0 0.0001174918201881712
5890.0 1.2901676053751955e-05
5900.0 5.2721906143962e-05
5910.0 0.00018864830297267283
5920.0 0.0004110690730000001
5930.0 0.0005789286972420399
5940.0 0.0007376560839899912
5950.0 0.0009253333403563148
5960.0 0.0010803247400000217
5970.0 0.0012330078435000076
5980.0 0.0013944183600002448
5990.0 0.0016348044229806435
6000.0 0.0018907463049999784
6010.0 0.002066379863000048
6020.0 0.0023318821399999925
6030.0 0.0027174369052146803
6040.0 0.003007145000000015
6050.0 0.003307266524999949
6060.0 0.0035576682279049635
6070.0 0.0038824613300002635
6080.0 0.004090555737500316
6090.0 0.0047014132750000295
6100.0 0.005031447670403645
6110.0 0.005494492489999974
6120.0 0.005912970330000008
6130.0 0.006387758929999964
6140.0 0.006984752514763305
6150.0 0.007538859049999992
6160.0 0.008071963650000201
6170.0 0.008746768524999993
6180.0 0.009450853515163657
6190.0 0.009792484861499988
6200.0 0.010940540549999971
6210.0 0.01176275548994089
6220.0 0.012170869034999598
6230.0 0.013098821003500323
6240.0 0.013940534844499846
6250.0 0.015527399404463913
6260.0 0.016209153317500325
6270.0 0.018181573199999634
6280.0 0.019728400349999887
6290.0 0.02115714608647774
6300.0 0.0213626129031161
6310.0 0.02297475737338795
6320.0 0.027388606205584847
6330.0 0.029068246849998793
6340.0 0.03226216349999915
6350.0 0.03529119699999998
6360.0 0.03826441196076445
6370.0 0.041404837150000005
6380.0 0.045566481649999865
6390.0 0.049792052499997935
6400.0 0.0547182677159444
6410.0 0.06006713044999945
6420.0 0.06456566755000262
6430.0 0.06814265529850037
6440.0 0.07779217337103285
6450.0 0.0857686054000005
6460.0 0.09138171660000512
6470.0 0.10270393819437547
6480.0 0.11411141850000114
6490.0 0.12547591500000052
6500.0 0.1381927420000003
6510.0 0.1461888481633468
6520.0 0.1671936999999981
6530.0 0.1826986599999953
6540.0 0.20274532249999117
6550.0 0.2224535657591819
6560.0 0.2453017479999985
6570.0 0.26933337799999646
6580.0 0.2731329867230604
6590.0 0.3241997895000003
6600.0 0.3530024615000119
6610.0 0.3873618910000044
6620.0 0.4352674725252735
6630.0 0.4685802379999905
6640.0 0.5278733575000061
6650.0 0.5783320285000085
6660.0 0.6366339379941978
6670.0 0.6940927100000025
6680.0 0.7616255080000027
6690.0 0.8334482430000025
6700.0 0.8887477847562664
6710.0 0.968318367499994
6720.0 1.0813298500000004
6730.0 1.1176130847763468
6740.0 1.2850247649999962
6750.0 1.3935669999999976
6760.0 1.510878704999997
6770.0 1.5990179281353183
6780.0 1.58999752135002
6790.0 1.845522404999977
6800.0 1.9249163050000566
6810.0 2.025433421579457
6820.0 2.0617656699999154
6830.0 2.115595640000006
6840.0 2.1172854711740468
6850.0 2.1813606700000294
6860.0 2.0800612654999977
6870.0 2.1795877550000067
6880.0 2.1313071174056635
6890.0 1.972671649999971
6900.0 1.9498308499999812
6910.0 1.8621560250000149
6920.0 1.5971379945206465
6930.0 1.7236208899999623
6940.0 1.6100706059999936
6950.0 1.670076394999993
6960.0 1.6291864067660735
6970.0 1.6700846649999983
6980.0 1.6735755750000458
6990.0 1.5082235616410593
7000.0 1.756394474999972
7010.0 1.9032810399999958
7020.0 1.9964197100000092
7030.0 2.0563140756679927
7040.0 2.1533369900000183
7050.0 2.1477327350000173
7060.0 2.215056945000001
7070.0 2.212696578921015
7080.0 2.2182744999999766
7090.0 2.0804185049999413
7100.0 2.160218271944724
7110.0 2.291093629999991
7120.0 2.365393284999941
7130.0 2.2883247429999636
7140.0 2.316603915523957
7150.0 2.352134315000053
7160.0 2.3012600050001253
7170.0 2.1963651050001065
7180.0 2.211713545690934
7190.0 2.15734816999998
7200.0 1.9967406918999988
7210.0 2.062926338204296
7220.0 1.980998914999982
7230.0 1.984539144999995
7240.0 1.937495485000097
7250.0 1.8809227694925894
7260.0 1.7931079750001233
7270.0 1.715963524999999
7280.0 1.6302208250001158
7290.0 1.5908276699029624
7300.0 1.5497799549999518
7310.0 1.5053760499999942
7320.0 1.430802745000073
7330.0 1.3193379261333682
7340.0 1.297882785000029
7350.0 1.2496773249999613
7360.0 1.1813746792113105
7370.0 1.139861879999989
7380.0 1.122684814999991
7390.0 1.066870599999998
7400.0 0.9032553170028034
7410.0 0.9058453884999862
7420.0 0.9028847284999901
7430.0 0.9214101614999963
7440.0 0.8206666476328786
7450.0 0.7298443674999996
7460.0 0.743632577500016
7470.0 0.8159751049944913
7480.0 0.700273909500008
7490.0 0.5717421435000015
7500.0 0.6156476349999972
7510.0 0.6355452619357447
7520.0 0.5069047720000064
7530.0 0.5011260034999965
7540.0 0.5153909809999909
7550.0 0.42873425738164717
7560.0 0.410754001499986
7570.0 0.3927496154999988
7580.0 0.36615832808044885
7590.0 0.3625893965888071
7600.0 0.33171990349999747
7610.0 0.31302190349999937
7620.0 0.28455118586728023
7630.0 0.24925616249999977
7640.0 0.15285876674999993
7650.0 0.04404608149999995
7660.0 0.014593097368431982
7670.0 0.016280079588049213
7680.0 0.034163530349999874
7690.0 0.02758170055000035
7700.0 0.018152810700830344
7710.0 0.03945296194999775
7720.0 0.10905784739999401
7730.0 0.21088143489140418
7740.0 0.29728931850000495
7750.0 0.38625198650001524
7760.0 0.4695835160000039
7770.0 0.5434102402662426
7780.0 0.5980571260000016
7790.0 0.6236538089999973
7800.0 0.2358705390460887
7810.0 0.7703015760184251
7820.0 0.9258404874999989
7830.0 1.070362175
7840.0 1.2015671134021024
7850.0 1.3346718399999946
7860.0 1.4801037599999933
7870.0 1.650610834999958
7880.0 1.8366456781102736
7890.0 2.0441177949999747
7900.0 2.29182405499997
7910.0 2.563567374999991
7920.0 2.818953865979381
7930.0 2.999702440000004
7940.0 2.5768525349998948
7950.0 1.3091410650636452
7960.0 3.8998484249999996
7970.0 4.580245185000019
7980.0 5.120401734999993
7990.0 5.6499956335702075
8000.0 6.237328099999976
8010.0 6.880181024999983
8020.0 7.538503175000003
8030.0 8.16236449904912
8040.0 8.77750060000003
8050.0 9.50763243999992
8060.0 10.32083653500001
8070.0 11.204670913822449
8080.0 12.20303445
8090.0 13.10952774999976
8100.0 14.152407326594771
8110.0 15.104675949999018
8120.0 16.15399934999966
8130.0 17.282547499998316
8140.0 18.68280790210953
