#lam[Angstrom] flux[erg/cm2/s/A]
1010.0 2.6292336086241708e-51
1020.0 1.2793905385366836e-50
1030.0 5.496460715618765e-50
1040.0 2.0992097499488354e-50
1050.0 1.753142222820575e-51
1060.0 3.3086959844060655e-52
1070.0 4.162312941477402e-49
1080.0 7.253612866162196e-47
1090.0 8.70160591407852e-48
1100.0 8.761391654155389e-48
1110.0 4.6283142586788775e-46
1120.0 8.02735278756292e-46
1130.0 3.992383556386253e-45
1140.0 2.6435233663360524e-44
1150.0 4.693782684177732e-44
1160.0 7.618868738207539e-44
1170.0 2.244653513457937e-43
1180.0 2.582403755446381e-43
1190.0 1.02602515932017e-42
1200.0 1.7293689838656327e-42
1210.0 4.222282497177646e-42
1220.0 4.395075708749707e-42
1230.0 1.4693351538072803e-41
1240.0 2.5883056336884517e-41
1250.0 5.315045175076954e-41
1260.0 8.022510809110971e-41
1270.0 1.6117565943831263e-40
1280.0 2.5637484588907576e-40
1290.0 4.841939251820619e-40
1300.0 8.428678011698242e-40
1310.0 1.2649092340390682e-39
1320.0 6.420155837318083e-38
1330.0 1.691299936999955e-37
1340.0 2.8258340717362934e-37
1350.0 4.756148407152862e-37
1360.0 7.540539565683733e-37
1370.0 1.2093114160670378e-36
1380.0 1.839451809026731e-36
1390.0 3.027211948163196e-36
1400.0 3.3932760984994615e-36
1410.0 6.921821122158982e-36
1420.0 1.2662371889639258e-35
1430.0 2.0090681011899585e-35
1440.0 2.8269263152858986e-35
1450.0 4.6423260093401975e-35
1460.0 5.205321415014013e-35
1470.0 1.218281976499982e-34
1480.0 1.990109006561021e-34
1490.0 2.9443169532906235e-34
1500.0 5.239084546500427e-34
1510.0 8.35771649150001e-34
1520.0 1.3765226017147184e-33
1530.0 1.9593413058809915e-33
1540.0 2.8178876886001584e-33
1550.0 4.465117995745247e-33
1560.0 8.048857245506388e-33
1570.0 1.0727244040099907e-32
1580.0 3.0344846703750782e-33
1590.0 5.311897976798932e-33
1600.0 1.8990446007759707e-32
1610.0 8.376219544676408e-32
1620.0 5.203400219977251e-33
1630.0 1.7453839297258526e-32
1640.0 2.712723175055403e-32
1650.0 5.476320035442107e-31
1660.0 6.990518852446363e-31
1670.0 9.157821584759962e-31
1680.0 5.136485479394257e-31
1690.0 1.0078848842506368e-30
1700.0 4.691029633059715e-31
1710.0 4.650959177297874e-31
1720.0 2.8784424543878464e-30
1730.0 9.09520519828354e-30
1740.0 2.8812510397384156e-29
1750.0 5.565072766030598e-29
1760.0 1.5299780167172523e-28
1770.0 2.7161046909990614e-28
1780.0 3.701346984738868e-28
1790.0 6.658656995344228e-28
1800.0 1.0828860611501651e-27
1810.0 1.207925445290364e-27
1820.0 2.284170672996053e-27
1830.0 2.449553417001589e-27
1840.0 1.7263817731100696e-27
1850.0 2.822097243904243e-27
1860.0 8.528014805851258e-27
1870.0 1.4351513951675077e-26
1880.0 2.2670953228244137e-26
1890.0 3.051536293279213e-26
1900.0 5.248399152133611e-26
1910.0 7.252617537880689e-26
1920.0 1.0616112227869693e-25
1930.0 9.351302540815485e-26
1940.0 1.6229603322199782e-25
1950.0 2.4757140160875713e-25
1960.0 6.877062307351608e-26
1970.0 3.2349122178290985e-25
1980.0 6.592491739939724e-25
1990.0 8.548046767997733e-25
2000.0 9.062926726308212e-25
2010.0 1.0530671040561583e-24
2020.0 1.3019189200834186e-24
2030.0 1.7803344657103676e-24
2040.0 1.8558665657023566e-24
2050.0 3.86227092670798e-24
2060.0 5.2374587480998135e-24
2070.0 1.4448714683193927e-24
2080.0 9.500442144941536e-24
2090.0 8.781347759769375e-24
2100.0 1.447784656818703e-23
2110.0 1.7382210447713058e-23
2120.0 2.338232013411128e-23
2130.0 8.990052351387514e-24
2140.0 1.0647552621802638e-24
2150.0 4.7450337145467013e-23
2160.0 9.889818957968877e-23
2170.0 5.787693132456049e-23
2180.0 8.460559233250288e-23
2190.0 2.887679597974474e-22
2200.0 3.141884279454899e-22
2210.0 3.4737882371522993e-22
2220.0 7.85365217390463e-22
2230.0 6.07319359270464e-22
2240.0 1.258401782967961e-21
2250.0 1.3827283187788763e-21
2260.0 1.849801327953908e-21
2270.0 2.304545369049688e-21
2280.0 2.5400554823665305e-21
2290.0 2.0523273990439813e-21
2300.0 2.0644808881733966e-21
2310.0 9.439723671485685e-22
2320.0 2.879134480975913e-21
2330.0 8.50144689428122e-21
2340.0 9.131320672725428e-21
2350.0 9.961676756871373e-21
2360.0 1.2008820889940105e-20
2370.0 1.1742946763228574e-20
2380.0 1.3191613159680837e-20
2390.0 1.0853000738909858e-20
2400.0 5.031901845092389e-21
2410.0 1.7939508517756068e-26
2420.0 3.2806291900734627e-22
2430.0 2.3457934182959397e-22
2440.0 5.620897056181299e-20
2450.0 1.6008828433353658e-19
2460.0 2.636840753294945e-19
2470.0 3.3275509976981893e-19
2480.0 5.824207709905806e-19
2490.0 7.508653775351724e-19
2500.0 5.072615149970929e-19
2510.0 5.508585087823132e-19
2520.0 3.224702576694741e-20
2530.0 1.227926714389651e-19
2540.0 1.0012173351264762e-18
2550.0 2.5324832432598236e-18
2560.0 3.368456765398749e-18
2570.0 2.7377993954766835e-18
2580.0 6.01436236200043e-18
2590.0 5.7851623086547336e-18
2600.0 1.0597197873898124e-17
2610.0 1.2457864035247477e-17
2620.0 1.478745193486177e-17
2630.0 1.2715401517007176e-17
2640.0 2.2273102716425526e-17
2650.0 1.5096050809482525e-17
2660.0 2.583732839593556e-17
2670.0 4.0580919396963353e-17
2680.0 5.292088954275445e-17
2690.0 5.288149591458551e-17
2700.0 8.309691368223916e-17
2710.0 6.87922914776144e-17
2720.0 1.0589145635241954e-16
2730.0 1.5052228354099272e-16
2740.0 1.8206401361744076e-16
2750.0 1.9980555936261478e-16
2760.0 2.375788159688967e-16
2770.0 3.150357297500162e-16
2780.0 3.944248207500189e-16
2790.0 4.800633530558828e-16
2800.0 5.748782112499573e-16
2810.0 6.58055545495959e-16
2820.0 7.642245349023594e-16
2830.0 8.218270320467348e-16
2840.0 1.165431877449982e-15
2850.0 1.2046529303331965e-15
2860.0 2.640510813512967e-10
2870.0 2.2321305177054486e-09
2880.0 1.1616073417745692e-08
2890.0 4.965861504774651e-08
2900.0 1.6808668903753317e-07
2910.0 2.3640048099663534e-07
2920.0 3.735332671584271e-07
2930.0 2.100933784798988e-07
2940.0 5.191653325887931e-08
2950.0 1.765576541156824e-07
2960.0 8.397902280204602e-07
2970.0 4.83046076951755e-07
2980.0 4.0019783216302146e-07
2990.0 1.2824383059292534e-08
3000.0 2.3758450997251827e-07
3010.0 1.482629302983494e-07
3020.0 1.0326871701045492e-07
3030.0 2.454128963284408e-07
3040.0 3.981771465485362e-09
3050.0 2.6475445445888234e-09
3060.0 1.0383245423187047e-08
3070.0 2.1222632173236197e-08
3080.0 1.2962919757965153e-09
3090.0 4.334530425857964e-08
3100.0 7.014722172278175e-07
3110.0 5.243463282011587e-06
3120.0 3.134352891616673e-06
3130.0 1.4066757689637911e-06
3140.0 3.396310978768111e-07
3150.0 1.7613844236131084e-06
3160.0 3.0092997043599288e-06
3170.0 8.716155323730248e-06
3180.0 3.456893767460626e-05
3190.0 8.131603439628365e-06
3200.0 7.437990324996428e-06
3210.0 9.680297397180342e-06
3220.0 1.5243482757660708e-06
3230.0 2.445014307065941e-06
3240.0 3.309118047008222e-07
3250.0 1.3676872520102859e-07
3260.0 7.943273461939638e-07
3270.0 1.6035806669235016e-07
3280.0 4.3095720692251924e-08
3290.0 1.0820481048144454e-08
3300.0 5.6421756315246936e-11
3310.0 1.6985816732994056e-09
3320.0 7.129721801310194e-08
3330.0 5.006550329462169e-07
3340.0 5.32056194479514e-06
3350.0 1.0387149524467388e-05
3360.0 2.2433021711001764e-05
3370.0 1.2942440179076463e-05
3380.0 2.3059604199040765e-05
3390.0 8.340771887060708e-06
3400.0 2.689030462465258e-06
3410.0 1.046642360036532e-08
3420.0 1.2808660354148865e-06
3430.0 7.840045591303638e-07
3440.0 5.11985122825844e-07
3450.0 2.164112390840957e-08
3460.0 5.9347566288647425e-08
3470.0 7.371387289459382e-09
3480.0 1.9344989527969647e-06
3490.0 6.468161876951383e-06
3500.0 5.596234309867838e-07
3510.0 4.940680324728037e-08
3520.0 3.1914183664376856e-08
3530.0 1.466957507594164e-08
3540.0 1.8386810299500183e-05
3550.0 2.6732073637503946e-05
3560.0 6.075603509527224e-05
3570.0 8.998969439815874e-06
3580.0 5.336034147564429e-06
3590.0 1.1277192431085757e-05
3600.0 4.9742275778563835e-06
3610.0 8.078961278602536e-05
3620.0 0.0002929741595049972
3630.0 0.0001041808636860216
3640.0 0.0008370999932164427
3650.0 0.00020742289774929975
3660.0 0.0010659187425193107
3670.0 0.00164491504978646
3680.0 0.0013504417692101296
3690.0 0.0023691530675224227
3700.0 0.0036844202595765615
3710.0 0.002227577582891606
3720.0 0.0007129143307939176
3730.0 0.000408408166771081
3740.0 0.0007643185970967604
3750.0 0.002716430268726607
3760.0 0.005597326858184683
3770.0 0.008159819346934964
3780.0 0.005618919537205645
3790.0 0.005705387847356221
3800.0 0.001436421291680803
3810.0 0.007027452705152752
3820.0 0.007750151821399764
3830.0 0.007933465288842355
3840.0 0.00940036189161217
3850.0 0.005382672506524422
3860.0 0.0007583152800143342
3870.0 0.0015011070428722151
3880.0 0.002259255532781703
3890.0 0.003023438176454834
3900.0 0.002275069710216398
3910.0 0.0020113272057601496
3920.0 0.005893591067320425
3930.0 0.0028907004583048866
3940.0 0.003701538636851222
3950.0 0.003917288379341156
3960.0 0.003263291154298139
3970.0 0.002024237447121918
3980.0 0.0013417671016485533
3990.0 0.0010308491004547883
4000.0 0.0013065561184101412
4010.0 0.000586502049097389
4020.0 0.00038586309746520725
4030.0 3.191880442530427e-05
4040.0 1.1879336007911711e-05
4050.0 1.971098261281841e-05
4060.0 0.0005383672259939241
4070.0 0.002159469245320712
4080.0 0.0024846928693689936
4090.0 0.0033209581562474847
4100.0 0.004659698250625898
4110.0 0.012410372227639957
4120.0 0.01685092100398793
4130.0 0.01951838369863345
4140.0 0.032612812986800944
4150.0 0.023246806216270073
4160.0 0.025949391158906137
4170.0 0.002504029032497127
4180.0 0.015011659751775782
4190.0 0.0033854659740528356
4200.0 0.017212419856449508
4210.0 0.021312447333162038
4220.0 0.03386463522319154
4230.0 0.02251617872954214
4240.0 0.029738673096497824
4250.0 0.010242266856174055
4260.0 0.008654991670159273
4270.0 0.009575468942240936
4280.0 0.009767655528922052
4290.0 0.008044100578768826
4300.0 0.03109371016882555
4310.0 0.04512109767422169
4320.0 0.0655719006518248
4330.0 0.07611637175487267
4340.0 0.07012774906637077
4350.0 0.1480351512277686
4360.0 0.17050818647701504
4370.0 0.25246795349732576
4380.0 0.2800204757599456
4390.0 0.3353886987883934
4400.0 0.250008771501839
4410.0 0.290109547144119
4420.0 0.1942575441936608
4430.0 0.2124307064399797
4440.0 0.33157402181196016
4450.0 0.4268223607019769
4460.0 0.4365249072023155
4470.0 0.6212973877491051
4480.0 0.28784097509833356
4490.0 0.7007945784355368
4500.0 0.20164885830490442
4510.0 0.5645575018169668
4520.0 0.4357110322481973
4530.0 0.4530871597505467
4540.0 0.6045804530979567
4550.0 0.3530588061992059
4560.0 0.5899034674723866
4570.0 0.5648922431824211
4580.0 0.5191992809840457
4590.0 0.23728780821395018
4600.0 0.08799561677012405
4610.0 0.017475834038448337
4620.0 0.22042202659015026
4630.0 0.05849313969222358
4640.0 0.2726317624091413
4650.0 0.056277465739155846
4660.0 0.4507701630077281
4670.0 0.8681255593281261
4680.0 0.7440546886034931
4690.0 0.7336603095005729
4700.0 1.936018880706293
4710.0 0.6582140971487664
4720.0 0.24801080227474603
4730.0 0.17178097955805016
4740.0 0.9787064515741475
4750.0 1.243930650270125
4760.0 0.564092170463599
4770.0 0.8210910712761996
4780.0 0.4070096728205401
4790.0 0.3657501624375874
4800.0 0.6760257849999846
4810.0 0.28338350825086595
4820.0 0.2778635564109105
4830.0 0.3150174744370026
4840.0 0.12676514583278226
4850.0 0.06653286317603638
4860.0 0.07867406670331309
4870.0 0.05843609840886068
4880.0 0.03995419189414965
4890.0 0.03682762738477532
4900.0 0.021951706928858845
4910.0 0.01775462670011404
4920.0 0.01183404644521962
4930.0 0.01637293234821451
4940.0 0.01544208556339214
4950.0 0.007609644018331593
4960.0 0.011155179286487828
4970.0 0.010415399347248217
4980.0 0.007250182769945302
4990.0 0.006778433308100056
5000.0 0.005087444335000038
5010.0 0.0036364310500003106
5020.0 0.002568502175138071
5030.0 0.002014881985887321
5040.0 0.0018640271675272266
5050.0 0.0019007410158626494
5060.0 0.001902385919865606
5070.0 0.00203618781062808
5080.0 0.002234914426949953
5090.0 0.0022056290731159345
5100.0 0.0019041216432745074
5110.0 0.001949722720000151
5120.0 0.0016610581358997346
5130.0 0.0015916306088846189
5140.0 0.0016096699498708573
5150.0 0.0016453406388247014
5160.0 0.0016652458722099792
5170.0 0.0014888331978687407
5180.0 0.0013479145350108984
5190.0 0.001421158513600538
5200.0 0.0010226505262564934
5210.0 0.0014244650060999922
5220.0 0.0014445295099999715
5230.0 0.001223611649899946
5240.0 0.001280786904714244
5250.0 0.001234911125999908
5260.0 0.001190972584849915
5270.0 0.0010991006780937524
5280.0 0.0010503605922889288
5290.0 0.0011079695980285163
5300.0 0.0009895651193448302
5310.0 0.0010450085819998756
5320.0 0.001016515783705426
5330.0 0.0009331185735673899
5340.0 0.0008594714846449926
5350.0 0.0008675974555251005
5360.0 0.0008275366048177803
5370.0 0.0008146460236434242
5380.0 0.0008016884213129986
5390.0 0.0008225334483535182
5400.0 0.0007250718394305186
5410.0 0.0007646286159226664
5420.0 0.0007483195759998647
5430.0 0.0007292932899459779
5440.0 0.0007178085958116733
5450.0 0.0006889170562429989
5460.0 0.0006529791365489694
5470.0 0.000678542844159808
5480.0 0.0006725706820499574
5490.0 0.000642039015594527
5500.0 0.0006460934181498893
5510.0 0.0006695820648999486
5520.0 0.0006552028750500034
5530.0 0.0006386760258001282
5540.0 0.0006580783320488773
5550.0 0.0005753670141279055
5560.0 0.0005866940009346815
5570.0 0.0006301036136499439
5580.0 0.0006361964904914574
5590.0 0.0006577372874999491
5600.0 0.0006480677060000928
5610.0 0.0006303228124998726
5620.0 0.0005469858978093481
5630.0 0.0006053317428121967
5640.0 0.0005818512967966167
5650.0 0.0006316903017714867
5660.0 0.0006264386328899521
5670.0 0.0006235867945000586
5680.0 0.0005936618576532645
5690.0 0.0006363862059854071
5700.0 0.000618655494554915
5710.0 0.0006226323500000021
5720.0 0.0006098017750000755
5730.0 0.0006095542718446231
5740.0 0.0005947885430001072
5750.0 0.0005627759373252157
5760.0 0.0005788274163215213
5770.0 0.0005138344548637042
5780.0 0.0005450589896809779
5790.0 0.0005403340580001358
5800.0 0.0005196050480932788
5810.0 0.0005106994464999971
5820.0 0.00047717333050003707
5830.0 0.00043150288032926115
5840.0 0.00038739737029756387
5850.0 0.0003880254868499389
5860.0 0.00036867858049998456
5870.0 0.0003028410200172991
5880.0 0.00023283987038334443
5890.0 4.834626488019348e-05
5900.0 0.00012194356872922003
5910.0 0.00029278841078470285
5920.0 0.00041904867099999785
5930.0 0.0005210939521892212
5940.0 0.0006327145897829702
5950.0 0.0007676326738564567
5960.0 0.0008786549100000375
5970.0 0.0009873445481000322
5980.0 0.0011035992695002733
5990.0 0.001276900446902165
6000.0 0.0014642835349999669
6010.0 0.0015960972369450715
6020.0 0.001791527194499916
6030.0 0.002091253431588415
6040.0 0.0023180650400000287
6050.0 0.002560493499999931
6060.0 0.0027669490096084164
6070.0 0.003042573610000348
6080.0 0.0032493652713153987
6090.0 0.0037853377700000582
6100.0 0.004106214611650892
6110.0 0.004565527649999912
6120.0 0.004992114964999999
6130.0 0.005506233084999904
6140.0 0.0061834496346712085
6150.0 0.006858315749999984
6160.0 0.007534234900000463
6170.0 0.008421817099999951
6180.0 0.009401292560304272
6190.0 0.010095616397994887
6200.0 0.011635718399999892
6210.0 0.012931425157641773
6220.0 0.01380552378279952
6230.0 0.015363774848960288
6240.0 0.016836607536616085
6250.0 0.019309404048643706
6260.0 0.020916714562000727
6270.0 0.024165534349998616
6280.0 0.02712863284999928
6290.0 0.030063396707036005
6300.0 0.03145000859049575
6310.0 0.03475167328687093
6320.0 0.04236492888099227
6330.0 0.046028697024998275
6340.0 0.051960203499997054
6350.0 0.058002031750000044
6360.0 0.06381850009508486
6370.0 0.06981048235000017
6380.0 0.07778577859999974
6390.0 0.08543885324999302
6400.0 0.09438388921029019
6410.0 0.10399796809999796
6420.0 0.11178199090000546
6430.0 0.11831011995082605
6440.0 0.133965262586322
6450.0 0.14692798450000139
6460.0 0.15530000195000845
6470.0 0.17226629376439132
6480.0 0.18978743100000506
6490.0 0.20615794700000217
6500.0 0.2242870519999995
6510.0 0.23359603697826978
6520.0 0.2621006899999901
6530.0 0.2810126924999837
6540.0 0.306539968499974
6550.0 0.32978839535581667
6560.0 0.3573604034999937
6570.0 0.38623665449998534
6580.0 0.386812583611735
6590.0 0.4467522745000086
6600.0 0.4756111235000092
6610.0 0.5080165415000252
6620.0 0.5597454828846019
6630.0 0.5890755304999853
6640.0 0.6501294945000126
6650.0 0.6976504680000265
6660.0 0.7542685513962596
6670.0 0.8052176890000011
6680.0 0.8672071650000077
6690.0 0.9293893400000041
6700.0 0.9676590071063544
6710.0 1.0313008499999845
6720.0 1.1302380000000039
6730.0 1.1389300503953768
6740.0 1.2924384099999935
6750.0 1.3768980800000055
6760.0 1.4710218349999962
6770.0 1.5323702852567271
6780.0 1.5108039927818862
6790.0 1.720389829999942
6800.0 1.7645958650001017
6810.0 1.8379729141228287
6820.0 1.857630167999882
6830.0 1.8993299600000828
6840.0 1.9082992394915086
6850.0 1.9582766390000226
6860.0 1.8923607031599843
6870.0 2.0031923649999994
6880.0 1.9815428630767693
6890.0 1.8545372249999124
6900.0 1.8609508449999383
6910.0 1.8085052500000551
6920.0 1.5831849227462815
6930.0 1.7150541799998746
6940.0 1.6298617205399553
6950.0 1.702609474999985
6960.0 1.670194317886004
6970.0 1.7225534549999921
6980.0 1.732846295000062
6990.0 1.567876033941407
7000.0 1.788634454999884
7010.0 1.9205003499999673
7020.0 1.9912336650000215
7030.0 2.0325495060552012
7040.0 2.122372510000056
7050.0 2.1106112150000285
7060.0 2.187820550000004
7070.0 2.1918402632368656
7080.0 2.209556699999917
7090.0 2.081857090449815
7100.0 2.141052700930712
7110.0 2.2711260985
7120.0 2.3396183149998837
7130.0 2.2915878013848863
7140.0 2.30861433690327
7150.0 2.3607696150001845
7160.0 2.2928280850003926
7170.0 2.154472340000318
7180.0 2.2453234265834623
7190.0 2.21838696999995
7200.0 2.116522748219324
7210.0 2.1979770243216032
7220.0 2.1538915324999603
7230.0 2.166699009999953
7240.0 2.1385184350002855
7250.0 2.1062718616755767
7260.0 2.048536300000383
7270.0 2.009785045000031
7280.0 1.9410742750003842
7290.0 1.906907121909853
7300.0 1.8745335449998208
7310.0 1.8670121150000125
7320.0 1.8076890900002784
7330.0 1.697931194224379
7340.0 1.7073664500001051
7350.0 1.6653590999998427
7360.0 1.6071899469523336
7370.0 1.5708095899999746
7380.0 1.5628414649999778
7390.0 1.5154142100000159
7400.0 1.3241322659207122
7410.0 1.3404781149999354
7420.0 1.3407846549999458
7430.0 1.3722667349999802
7440.0 1.2362905159643984
7450.0 1.1278754400000026
7460.0 1.1408999350000335
7470.0 1.251936441797593
7480.0 1.087412385000025
7490.0 0.8868405600000024
7500.0 0.9544062699999931
7510.0 0.9892374170753626
7520.0 0.7670409025000169
7530.0 0.7547121294999894
7540.0 0.7756018574999601
7550.0 0.6101744139225408
7560.0 0.5699944799999568
7570.0 0.5312843979999963
7580.0 0.4753313845114981
7590.0 0.4655078765067786
7600.0 0.3991490129999946
7610.0 0.3614744384999998
7620.0 0.3087061234611136
7630.0 0.2513740674999991
7640.0 0.14106029800000008
7650.0 0.05530242250000004
7660.0 0.02080146528600795
7670.0 0.0235354214826987
7680.0 0.050458676100000224
7690.0 0.04251368400000045
7700.0 0.026826768485085802
7710.0 0.05530802454999836
7720.0 0.10513168894999539
7730.0 0.19358983435091945
7740.0 0.2950684780000068
7750.0 0.42773548800003347
7760.0 0.5763627820000052
7770.0 0.7140572849564677
7780.0 0.8214817585000049
7790.0 0.9130688024999984
7800.0 0.5082599296459929
7810.0 1.1898700545491057
7820.0 1.4042077749999962
7830.0 1.6325314999999962
7840.0 1.825752731958898
7850.0 2.033079579999992
7860.0 2.2418099199999793
7870.0 2.4645697399998685
7880.0 2.7204345786206634
7890.0 2.9874777199999176
7900.0 3.2899273299999026
7910.0 3.6055951800000265
7920.0 3.8939035827244544
7930.0 4.12395656499999
7940.0 3.81452322999992
7950.0 2.275312271008955
7960.0 5.089507204999867
7970.0 5.655664550000017
7980.0 6.158664509999923
7990.0 6.633976898208335
8000.0 7.135462499999903
8010.0 7.6698952749999485
8020.0 8.21024285
8030.0 8.712796579421415
8040.0 9.202337870000175
8050.0 9.781011489999736
8060.0 10.354953600000115
8070.0 10.992530662596506
8080.0 11.727278350000203
8090.0 12.209622849999377
8100.0 12.86809691722794
8110.0 13.330178849997111
8120.0 14.105287099998641
8130.0 14.579444049996003
