#lam[Angstrom] flux[erg/cm2/s/A]
1010.0 2.9585349082187974e-52
1020.0 1.2595495314118255e-51
1030.0 4.104522441516175e-50
1040.0 2.845287505185835e-51
1050.0 2.0789481520787156e-52
1060.0 7.92697882400126e-53
1070.0 3.4033797879875995e-50
1080.0 2.1290731232203028e-47
1090.0 1.836726090413888e-48
1100.0 6.111583469779204e-49
1110.0 6.164337753300798e-47
1120.0 1.1888191140014704e-46
1130.0 5.951361304757787e-46
1140.0 3.885930508762848e-45
1150.0 4.903409296498775e-45
1160.0 8.562760695591695e-45
1170.0 2.355131647856044e-44
1180.0 2.403720174520287e-44
1190.0 9.179919088803266e-44
1200.0 1.4784980648073168e-43
1210.0 3.571150129472783e-43
1220.0 3.664529418970875e-43
1230.0 1.1858467239724282e-42
1240.0 2.2015143442756622e-42
1250.0 4.5793336375742535e-42
1260.0 7.232841163524361e-42
1270.0 1.5048456839391625e-41
1280.0 2.565966472415818e-41
1290.0 5.11265715452917e-41
1300.0 9.501387767383489e-41
1310.0 1.5624631746122336e-40
1320.0 4.881404483579028e-39
1330.0 1.3195492074999507e-38
1340.0 2.3415760207981978e-38
1350.0 4.1915891309273673e-38
1360.0 7.17245265007137e-38
1370.0 1.2486829972821476e-37
1380.0 2.0726905048352116e-37
1390.0 3.7506006763043288e-37
1400.0 4.9291144180796626e-37
1410.0 1.061221782352485e-36
1420.0 2.087874348508023e-36
1430.0 3.644801897115015e-36
1440.0 5.6887434791349e-36
1450.0 1.0393232378650532e-35
1460.0 1.3451545928465657e-35
1470.0 3.1322222350013145e-35
1480.0 5.460493780258897e-35
1490.0 8.674668857502025e-35
1500.0 1.6181882840001347e-34
1510.0 2.713609281000038e-34
1520.0 4.674700233952294e-34
1530.0 6.991566714211071e-34
1540.0 1.0518212973243878e-33
1550.0 1.7206668829502873e-33
1560.0 3.18113982392402e-33
1570.0 4.593290154746086e-33
1580.0 1.6924873659820714e-33
1590.0 3.6770771992188534e-33
1600.0 9.110392438249469e-33
1610.0 3.703290569638687e-32
1620.0 4.82551401483258e-33
1630.0 1.233728755600129e-32
1640.0 2.0002991023515294e-32
1650.0 2.5151922010919148e-31
1660.0 3.256601526932831e-31
1670.0 4.514337282844752e-31
1680.0 3.102086972343549e-31
1690.0 5.958719653868619e-31
1700.0 3.3668876216398923e-31
1710.0 4.586822605465591e-31
1720.0 1.8825999960579943e-30
1730.0 4.923679679799528e-30
1740.0 1.375094549253922e-29
1750.0 2.552112406606492e-29
1760.0 6.230171697317287e-29
1770.0 1.0730763427967276e-28
1780.0 1.4875095984936525e-28
1790.0 2.5956132786510486e-28
1800.0 4.191385071500672e-28
1810.0 4.946028836087635e-28
1820.0 9.01815734220161e-28
1830.0 1.0225278222838542e-27
1840.0 8.744243423220172e-28
1850.0 1.3496866255460602e-27
1860.0 3.517967202515288e-27
1870.0 5.7250933227009874e-27
1880.0 9.009476818718534e-27
1890.0 1.2257352025835987e-26
1900.0 2.0423037683274496e-26
1910.0 2.849700518719296e-26
1920.0 4.172647538950072e-26
1930.0 4.118820524945736e-26
1940.0 6.787778426825261e-26
1950.0 1.0199407189090106e-25
1960.0 4.053186886750682e-26
1970.0 1.4634406118369887e-25
1980.0 2.7537481530017235e-25
1990.0 3.5997575901450963e-25
2000.0 3.7845761134441925e-25
2010.0 4.239323058780226e-25
2020.0 5.464721991245202e-25
2030.0 7.589284153204381e-25
2040.0 8.547408191098833e-25
2050.0 1.5893873050825525e-24
2060.0 2.2218835259998574e-24
2070.0 1.0067445372595857e-24
2080.0 4.174313525949515e-24
2090.0 4.228200260774149e-24
2100.0 6.671190614508721e-24
2110.0 8.451183460182922e-24
2120.0 1.1847127873649016e-23
2130.0 6.784496210870451e-24
2140.0 1.4376337907423705e-24
2150.0 2.660313903744404e-23
2160.0 4.664911249551786e-23
2170.0 3.242199176058354e-23
2180.0 4.900109700167008e-23
2190.0 1.2795538875450535e-22
2200.0 1.3970231023184895e-22
2210.0 1.6349035282762656e-22
2220.0 3.260222582999847e-22
2230.0 2.8867757513660463e-22
2240.0 5.282006223708662e-22
2250.0 6.038342099609863e-22
2260.0 8.168563724099608e-22
2270.0 1.0149535794021152e-21
2280.0 1.2042697019484216e-21
2290.0 1.127475538949465e-21
2300.0 1.2221088794271605e-21
2310.0 7.235306059809146e-22
2320.0 1.793029789445831e-21
2330.0 4.2667929572011034e-21
2340.0 4.4590313308824116e-21
2350.0 5.2895591539357084e-21
2360.0 6.687506271981577e-21
2370.0 7.225552342035536e-21
2380.0 8.057894878757946e-21
2390.0 8.647053780260781e-21
2400.0 5.236086926317352e-21
2410.0 6.3953735488440755e-25
2420.0 1.2748362367693317e-21
2430.0 8.995328550359232e-22
2440.0 3.449105839135371e-20
2450.0 8.31603843450798e-20
2460.0 1.2252573025683441e-19
2470.0 1.5307027300479842e-19
2480.0 2.4071391930158085e-19
2490.0 3.104605567406787e-19
2500.0 2.508055634839506e-19
2510.0 3.033981470345384e-19
2520.0 3.9522575950945895e-20
2530.0 1.2251027330873678e-19
2540.0 5.115162143144016e-19
2550.0 1.0625766362351312e-18
2560.0 1.3581674999837466e-18
2570.0 1.2027904405504415e-18
2580.0 2.30456424150014e-18
2590.0 2.3246446496937167e-18
2600.0 3.815560289357304e-18
2610.0 4.486790415751042e-18
2620.0 5.3578961741529296e-18
2630.0 5.1389867534083445e-18
2640.0 8.145854601063285e-18
2650.0 6.453513718893676e-18
2660.0 1.0036994009912373e-17
2670.0 1.4454990617452965e-17
2680.0 1.799344929873821e-17
2690.0 1.9469397741824703e-17
2700.0 2.833284903849543e-17
2710.0 2.6123750827480487e-17
2720.0 3.715308199745394e-17
2730.0 5.0238299494996605e-17
2740.0 6.045896179809996e-17
2750.0 6.744850813047613e-17
2760.0 8.140319122164748e-17
2770.0 1.0388480765018967e-16
2780.0 1.2802548310000465e-16
2790.0 1.546818631793945e-16
2800.0 1.8435334139998728e-16
2810.0 2.1324172149935368e-16
2820.0 2.489723040878928e-16
2830.0 2.7458880665020857e-16
2840.0 3.704134632499922e-16
2850.0 3.7767476006682496e-16
2860.0 7.790222507222419e-10
2870.0 5.829631826896224e-09
2880.0 2.6032376635966434e-08
2890.0 7.991146549685162e-08
2900.0 2.2170560054816028e-07
2910.0 2.983535199923663e-07
2920.0 4.159834046472757e-07
2930.0 2.8883324386200255e-07
2940.0 1.0277061762060069e-07
2950.0 2.8776208517392146e-07
2960.0 9.338839612717929e-07
2970.0 7.012614134220629e-07
2980.0 5.77024766170554e-07
2990.0 3.582759228142093e-08
3000.0 4.6911213665674585e-07
3010.0 2.9211108552210407e-07
3020.0 2.2560811619429852e-07
3030.0 5.47520651934818e-07
3040.0 1.666501919808997e-08
3050.0 1.1675680542894915e-08
3060.0 3.988123916308523e-08
3070.0 8.22859592615937e-08
3080.0 5.831381322076805e-09
3090.0 1.4008188448037954e-07
3100.0 1.2345830110248042e-06
3110.0 5.796128343503685e-06
3120.0 3.5068750015250182e-06
3130.0 2.1360968855600148e-06
3140.0 8.147572532837806e-07
3150.0 2.80996506631932e-06
3160.0 4.0059526452312225e-06
3170.0 9.517799684448545e-06
3180.0 2.711514775270505e-05
3190.0 9.506436627423258e-06
3200.0 1.0341962779890175e-05
3210.0 1.316306858575787e-05
3220.0 3.6360216933714415e-06
3230.0 5.367620728504228e-06
3240.0 9.331567320234235e-07
3250.0 3.6811620398743393e-07
3260.0 2.2371848207401293e-06
3270.0 4.798899490969271e-07
3280.0 1.2241120397366339e-07
3290.0 2.5345298024678224e-08
3300.0 4.4638556603900506e-11
3310.0 1.899670364034909e-09
3320.0 2.3387165417053003e-07
3330.0 1.7032512551318722e-06
3340.0 1.280416192979026e-05
3350.0 2.1729386498373374e-05
3360.0 4.240873905747665e-05
3370.0 2.4181378166019127e-05
3380.0 4.2658458509301426e-05
3390.0 1.798092807856137e-05
3400.0 7.4451620122994585e-06
3410.0 2.922202031303361e-08
3420.0 4.19719054554847e-06
3430.0 2.549328121340209e-06
3440.0 1.6531271254211356e-06
3450.0 3.6348847045445214e-08
3460.0 1.9520340572322896e-07
3470.0 1.9758026012686825e-08
3480.0 6.2167828793802405e-06
3490.0 1.7192366996780348e-05
3500.0 1.719327976920304e-06
3510.0 1.279643212541941e-07
3520.0 8.416092633087131e-08
3530.0 3.710741919608253e-08
3540.0 4.658739108600177e-05
3550.0 6.093331161711789e-05
3560.0 0.0001214561694180947
3570.0 2.155862905767884e-05
3580.0 1.1801925880198447e-05
3590.0 2.39841463157241e-05
3600.0 1.2122311914345716e-05
3610.0 0.00013387106095221933
3620.0 0.0004456701544600241
3630.0 0.0001939681420562256
3640.0 0.0012195689444229098
3650.0 0.00034399847670271255
3660.0 0.0014311877815414004
3670.0 0.002009472589161894
3680.0 0.0016093224790845629
3690.0 0.00256367423678277
3700.0 0.0037652345254356426
3710.0 0.002433336404062334
3720.0 0.0009279363723045482
3730.0 0.0005812898333494451
3740.0 0.0010112620875892472
3750.0 0.0028385524152464026
3760.0 0.005421193635775843
3770.0 0.007692100014885566
3780.0 0.005209927181977925
3790.0 0.005600900508436622
3800.0 0.0017322238354516943
3810.0 0.006467910720892863
3820.0 0.0071126105174007985
3830.0 0.007703443068304357
3840.0 0.008819088786712396
3850.0 0.005644737524965019
3860.0 0.0010511241628508707
3870.0 0.0020913569532504186
3880.0 0.0030712811712033323
3890.0 0.003603430123328104
3900.0 0.0028946479720563197
3910.0 0.00235364289865343
3920.0 0.0068470587462815015
3930.0 0.003794552442867751
3940.0 0.004886021409413869
3950.0 0.005374540264108341
3960.0 0.004755845424697304
3970.0 0.003237041244956974
3980.0 0.0024345467204293383
3990.0 0.001928647277666944
4000.0 0.0023793661101002895
4010.0 0.0012438688975813107
4020.0 0.0009517971724381005
4030.0 0.00010854634727678348
4040.0 2.8573821100693764e-05
4050.0 4.946772012401869e-05
4060.0 0.0011340426329384343
4070.0 0.0039291251606444165
4080.0 0.004364419765970805
4090.0 0.005691382657675421
4100.0 0.007349682443819666
4110.0 0.016188892787023925
4120.0 0.020550262578761913
4130.0 0.022435139177718375
4140.0 0.035139426831305824
4150.0 0.02641256954603837
4160.0 0.029949553774607125
4170.0 0.004132100856635191
4180.0 0.020549048938035833
4190.0 0.005749242169424582
4200.0 0.022609108846993124
4210.0 0.026488089905408484
4220.0 0.03314308412806047
4230.0 0.022056006583687046
4240.0 0.039706169621490955
4250.0 0.014060880191823524
4260.0 0.012534491793618086
4270.0 0.013467387738014746
4280.0 0.013756309818435604
4290.0 0.011306433580414305
4300.0 0.042869029644632614
4310.0 0.059341773641994756
4320.0 0.07955450917806638
4330.0 0.08179249202920102
4340.0 0.08012857921609907
4350.0 0.1443016247395303
4360.0 0.15768610026863358
4370.0 0.22345473257210544
4380.0 0.23633891438329568
4390.0 0.2802305539461211
4400.0 0.21049296497846043
4410.0 0.23189259264666257
4420.0 0.17007707694070967
4430.0 0.18897360919214448
4440.0 0.25842188111730624
4450.0 0.3201587402459664
4460.0 0.343037378907648
4470.0 0.4227794956617484
4480.0 0.21972896960476324
4490.0 0.4588073743368502
4500.0 0.1904721178852078
4510.0 0.3692809406241116
4520.0 0.2844725443019218
4530.0 0.3089270359973426
4540.0 0.41153701991013014
4550.0 0.2821634052918698
4560.0 0.4046711323787421
4570.0 0.3211965566664248
4580.0 0.37800411134281564
4590.0 0.21343932591036865
4600.0 0.09943325370916307
4610.0 0.023381012591232004
4620.0 0.22029381311683335
4630.0 0.07052759682337202
4640.0 0.22960506353914023
4650.0 0.07895665523424583
4660.0 0.37047290353873746
4670.0 0.5507171986431069
4680.0 0.4996751616292087
4690.0 0.5052473853676831
4700.0 1.1019782857783997
4710.0 0.5186429041722537
4720.0 0.23290743909130573
4730.0 0.18832955303163296
4740.0 0.6473375797006135
4750.0 0.7851380584225013
4760.0 0.41296010998453136
4770.0 0.5627558073833401
4780.0 0.32473735945469834
4790.0 0.29337234760400516
4800.0 0.45761238650000213
4810.0 0.19234438061069084
4820.0 0.28327158217387316
4830.0 0.33441581631971584
4840.0 0.16621666467766422
4850.0 0.10482841732976855
4860.0 0.12588231398926122
4870.0 0.10400887591333505
4880.0 0.07508358600109562
4890.0 0.07309596773513038
4900.0 0.04667661727009278
4910.0 0.03877797286333527
4920.0 0.026527301979778692
4930.0 0.03649275255050294
4940.0 0.033912037392029096
4950.0 0.016794301305093542
4960.0 0.024667142413836367
4970.0 0.02261857202494595
4980.0 0.015387210376413897
4990.0 0.013771619428450184
5000.0 0.009740854344999987
5010.0 0.006273868047500525
5020.0 0.003995205527155642
5030.0 0.00285040434795956
5040.0 0.002485684890433779
5050.0 0.002445258390112427
5060.0 0.0024317827056630106
5070.0 0.002614942254074967
5080.0 0.0028555072437499354
5090.0 0.00273520005285269
5100.0 0.0022570915186746823
5110.0 0.002199644940000192
5120.0 0.0017872159559497028
5130.0 0.0016962697072693894
5140.0 0.0016879723566814028
5150.0 0.0016969863988362227
5160.0 0.0016817281019099574
5170.0 0.0014676264503877658
5180.0 0.0012899086258167682
5190.0 0.0013376335951555778
5200.0 0.0009636637197851704
5210.0 0.0013148031087750073
5220.0 0.0013106585949999626
5230.0 0.0011025492767309229
5240.0 0.0011333982108397854
5250.0 0.001080997913999912
5260.0 0.0010377036315499244
5270.0 0.0009583426073382394
5280.0 0.0009150967406001935
5290.0 0.0009529541859200122
5300.0 0.0008550984987076036
5310.0 0.0008968233654998877
5320.0 0.0008729180664598949
5330.0 0.0008086181987828253
5340.0 0.0007527586467457067
5350.0 0.0007580519732660786
5360.0 0.0007293119205698978
5370.0 0.0007214530821595138
5380.0 0.0007136459105444685
5390.0 0.000731339977379637
5400.0 0.0006573771465095575
5410.0 0.000690710257932013
5420.0 0.0006803541214998596
5430.0 0.0006682165109248787
5440.0 0.0006622429555544508
5450.0 0.0006411771061757361
5460.0 0.0006155225153851734
5470.0 0.0006369625348814566
5480.0 0.0006345630844999464
5490.0 0.0006115603779550366
5500.0 0.0006164687446612558
5510.0 0.0006363474137499464
5520.0 0.0006252217443000073
5530.0 0.0006115725662501335
5540.0 0.0006279870111100349
5550.0 0.0005635540587434101
5560.0 0.0005726033424140934
5570.0 0.0006059440346999472
5580.0 0.0006110649113702535
5590.0 0.0006292940649999458
5600.0 0.0006208937565000933
5610.0 0.0006047182049998773
5620.0 0.000541084314206178
5630.0 0.0005863078752046979
5640.0 0.000566987363831564
5650.0 0.000603508279151118
5660.0 0.0005978468338749219
5670.0 0.0005961351395000413
5680.0 0.0005701128327615122
5690.0 0.0006014962167951356
5700.0 0.0005866936207498952
5710.0 0.0005874640345000124
5720.0 0.0005749737185000699
5730.0 0.000572237932088847
5740.0 0.0005575873505001092
5750.0 0.0005309682703033964
5760.0 0.0005386742098650128
5770.0 0.0004852601132455176
5780.0 0.0005028893297724892
5790.0 0.0004933053290001206
5800.0 0.0004711136253127786
5810.0 0.0004565099954999994
5820.0 0.00042439287315003963
5830.0 0.0003793495845024966
5840.0 0.0003328345875363336
5850.0 0.00031939575549993544
5860.0 0.00029349145549998853
5870.0 0.00020814596419711605
5880.0 0.00010737424742268377
5890.0 3.4715765504487024e-05
5900.0 7.070480789202465e-05
5910.0 0.000164842948623753
5920.0 0.000321375639499995
5930.0 0.00043976930494111545
5940.0 0.0005499548455149701
5950.0 0.0006761883218396522
5960.0 0.0007860076050000412
5970.0 0.0008983144180000643
5980.0 0.001019529337000286
5990.0 0.0011859283920527702
6000.0 0.0013658541449999618
6010.0 0.0015054632528550753
6020.0 0.0016981375869999423
6030.0 0.0019738389080172095
6040.0 0.002196365880000013
6050.0 0.0024345259299999207
6060.0 0.0026465784270841186
6070.0 0.002917381595000358
6080.0 0.003142574564500517
6090.0 0.003631753700000033
6100.0 0.003956961558403044
6110.0 0.004391561934999919
6120.0 0.00480347231999997
6130.0 0.005298097129999913
6140.0 0.0059344977965168685
6150.0 0.006559214924999978
6160.0 0.007185140600000453
6170.0 0.007994703549999965
6180.0 0.008875969330897798
6190.0 0.009522583331654913
6200.0 0.010835047949999902
6210.0 0.011963541112000728
6220.0 0.012761629242049198
6230.0 0.0141098088413054
6240.0 0.015395992272510015
6250.0 0.017480850710639546
6260.0 0.0189304596050005
6270.0 0.02166770579999891
6280.0 0.024206014699999275
6290.0 0.026809875002501864
6300.0 0.028210313779963542
6310.0 0.031227421750530573
6320.0 0.03775763898008141
6330.0 0.04126128601999807
6340.0 0.04670347799999728
6350.0 0.05248265225
6360.0 0.05827413674306801
6370.0 0.06432863225000066
6380.0 0.07236359139999976
6390.0 0.0803830859999935
6400.0 0.0899665503403074
6410.0 0.10074829434999824
6420.0 0.11011089510000481
6430.0 0.1185244201737518
6440.0 0.13633573626262974
6450.0 0.1523568070000018
6460.0 0.1638491070500089
6470.0 0.18534938709838591
6480.0 0.20833302200000167
6490.0 0.23059829700000317
6500.0 0.2556925045000006
6510.0 0.2717537767290489
6520.0 0.311473509999991
6530.0 0.33961621749998355
6540.0 0.3787050424999637
6550.0 0.4154558240416273
6560.0 0.45922107749999197
6570.0 0.5057566624999962
6580.0 0.5120529352600117
6590.0 0.6036968055000058
6600.0 0.6538986565000201
6610.0 0.7085323815000186
6620.0 0.7945183330497423
6630.0 0.847824179999978
6640.0 0.9508206450000273
6650.0 1.0335787965000407
6660.0 1.132893701331203
6670.0 1.2219020550000068
6680.0 1.331610440000007
6690.0 1.4435007350000042
6700.0 1.5140037949153684
6710.0 1.6169593949999734
6720.0 1.8062745750000009
6730.0 1.8262935146632242
6740.0 2.0918819949999907
6750.0 2.239117610000006
6760.0 2.402801329999996
6770.0 2.5085980137123367
6780.0 2.482691768943462
6790.0 2.838209909999895
6800.0 2.918725095000168
6810.0 3.0423723406067746
6820.0 3.0775576029998017
6830.0 3.143653275000154
6840.0 3.1503861559277966
6850.0 3.217208504000027
6860.0 3.0863834784149704
6870.0 3.2422045250000076
6880.0 3.1769112356120486
6890.0 2.8888555899998494
6900.0 2.932919624999918
6910.0 2.835498300000022
6920.0 2.482588136502108
6930.0 2.6629046599999535
6940.0 2.501772961659988
6950.0 2.587553479999993
6960.0 2.5212544740265335
6970.0 2.584361519999993
6980.0 2.5961740150000594
6990.0 2.347910148130664
7000.0 2.682507960499869
7010.0 2.8987417949999985
7020.0 3.0198497100000337
7030.0 3.0901178465616694
7040.0 3.233676155000021
7050.0 3.208294720000061
7060.0 3.317820585000002
7070.0 3.3144070978881257
7080.0 3.330962824999972
7090.0 3.12130469034988
7100.0 3.208185358322275
7110.0 3.4136723300000513
7120.0 3.5184975449998555
7130.0 3.438968114879945
7140.0 3.4468475017516957
7150.0 3.5248175750000987
7160.0 3.489337830000159
7170.0 3.3545337400000124
7180.0 3.3885604939443423
7190.0 3.3086117099998837
7200.0 3.1032818232235173
7210.0 3.1718401696526026
7220.0 3.0668947150000063
7230.0 3.0853464150000054
7240.0 3.020943955000166
7250.0 2.9573565148634358
7260.0 2.8275856750002903
7270.0 2.724725774999999
7280.0 2.588587550000214
7290.0 2.5460967250525504
7300.0 2.4811341949999326
7310.0 2.4135720049999745
7320.0 2.3021534350001005
7330.0 2.126817575868091
7340.0 2.0848779850001113
7350.0 2.0146810399999424
7360.0 1.893311505855283
7370.0 1.8380331299999846
7380.0 1.8048760950000164
7390.0 1.7110175399999952
7400.0 1.4517270986240831
7410.0 1.4352664299999742
7420.0 1.4253732749999868
7430.0 1.4484206849999928
7440.0 1.2694120988889985
7450.0 1.118221424999997
7460.0 1.134300355000051
7470.0 1.252743932038831
7480.0 1.047807022500013
7490.0 0.8205698240000023
7500.0 0.8900928069999994
7510.0 0.9161352996697083
7520.0 0.6891453740000104
7530.0 0.6742135689999947
7540.0 0.690736292999962
7550.0 0.5383135721649557
7560.0 0.5015685329999618
7570.0 0.4669588384999981
7580.0 0.4190768495672756
7590.0 0.4107488646026127
7600.0 0.3561986014999958
7610.0 0.32462842799999897
7620.0 0.28030160859773734
7630.0 0.23100156999999993
7640.0 0.1277427015
7650.0 0.03661144975
7660.0 0.012251852950355663
7670.0 0.013662713189849325
7680.0 0.028787129600000003
7690.0 0.023214578350000303
7700.0 0.015300566520968537
7710.0 0.033271259799998155
7720.0 0.08867095104999506
7730.0 0.17691597627865419
7740.0 0.27120662000000606
7750.0 0.388455525000028
7760.0 0.5130456085000057
7770.0 0.6302179426483894
7780.0 0.7243576380000036
7790.0 0.8059545804999992
7800.0 0.45832623516549464
7810.0 1.0617942692923725
7820.0 1.274309624999999
7830.0 1.5056321499999996
7840.0 1.718265951856782
7850.0 1.9566176699999935
7860.0 2.189921459999989
7870.0 2.4673218999998765
7880.0 2.784978044239783
7890.0 3.124023674999966
7900.0 3.517033204999959
7910.0 3.9437320449999813
7920.0 4.358864124211788
7930.0 4.679613819999999
7940.0 4.1898292149998575
7950.0 2.369057651115565
7960.0 6.092930595000004
7970.0 6.992942050000026
7980.0 7.776706059999993
7990.0 8.506333543188862
8000.0 9.300606874999975
8010.0 10.156289324999985
8020.0 11.028414750000003
8030.0 11.860522415173634
8040.0 12.64977339999997
8050.0 13.559334199999897
8060.0 14.532844500000015
8070.0 15.579806130517596
8080.0 16.802734500000007
8090.0 17.84856785
8100.0 19.09220901311279
8110.0 20.179483849998867
8120.0 21.163116599999057
8130.0 22.598243299998217
